# OpenSignals Text File Format
# {"98:D3:31:B2:10:CE": {"sensor": ["EDABIT", "ECGBIT"], "device name": "98:D3:31:B2:10:CE", "column": ["nSeq", "I1", "I2", "I3", "I4", "A2", "A3"], "sync interval": 2, "time": "13:35:1.838", "comments": "", "device connection": "BTH98:D3:31:B2:10:CE", "channels": [2, 3], "keywords": "", "convertedValues": 0, "mode": 0, "digital IO": [0, 0, 0, 0, 1, 1, 1, 1], "firmware version": 771, "device": "bitalino", "position": 0, "sampling rate": 100, "label": ["A2", "A3"], "resolution": [4, 1, 1, 1, 1, 10, 10], "date": "2018-4-10", "special": [{}, {}]}}
# EndOfHeader
0	0	0	0	0	939	529	
1	0	0	0	0	939	529	
2	0	0	0	0	939	529	
3	0	0	0	0	939	529	
4	0	0	0	0	939	524	
5	0	0	0	0	939	516	
6	0	0	0	0	939	513	
7	0	0	0	0	939	511	
8	0	0	0	0	940	511	
9	0	0	0	0	940	510	
10	0	0	0	0	940	505	
11	0	0	0	0	940	518	
12	0	0	0	0	940	526	
13	0	0	0	0	940	524	
14	0	0	0	0	940	519	
15	0	0	0	0	940	508	
0	0	0	0	0	940	505	
1	0	0	0	0	940	505	
2	0	0	0	0	940	505	
3	0	0	0	0	940	506	
4	0	0	0	0	940	507	
5	0	0	0	0	940	505	
6	0	0	0	0	940	505	
7	0	0	0	0	940	468	
8	0	0	0	0	940	441	
9	0	0	0	0	940	615	
10	0	0	0	0	940	729	
11	0	0	0	0	940	391	
12	0	0	0	0	940	420	
13	0	0	0	0	940	463	
14	0	0	0	0	940	519	
15	0	0	0	0	940	511	
0	0	0	0	0	940	515	
1	0	0	0	0	940	519	
2	0	0	0	0	940	519	
3	0	0	0	0	940	524	
4	0	0	0	0	940	526	
5	0	0	0	0	940	527	
6	0	0	0	0	940	528	
7	0	0	0	0	940	531	
8	0	0	0	0	940	531	
9	0	0	0	0	940	531	
10	0	0	0	0	940	534	
11	0	0	0	0	940	536	
12	0	0	0	0	940	536	
13	0	0	0	0	940	540	
14	0	0	0	0	940	545	
15	0	0	0	0	940	551	
0	0	0	0	0	940	560	
1	0	0	0	0	940	564	
2	0	0	0	0	940	563	
3	0	0	0	0	940	548	
4	0	0	0	0	940	534	
5	0	0	0	0	940	524	
6	0	0	0	0	940	516	
7	0	0	0	0	940	515	
8	0	0	0	0	940	513	
9	0	0	0	0	940	512	
10	0	0	0	0	940	512	
11	0	0	0	0	940	511	
12	0	0	0	0	940	511	
13	0	0	0	0	940	511	
14	0	0	0	0	940	511	
15	0	0	0	0	940	513	
0	0	0	0	0	940	515	
1	0	0	0	0	940	513	
2	0	0	0	0	940	515	
3	0	0	0	0	940	518	
4	0	0	0	0	940	518	
5	0	0	0	0	940	519	
6	0	0	0	0	940	519	
7	0	0	0	0	940	519	
8	0	0	0	0	940	519	
9	0	0	0	0	940	521	
10	0	0	0	0	940	521	
11	0	0	0	0	939	523	
12	0	0	0	0	939	524	
13	0	0	0	0	939	524	
14	0	0	0	0	939	524	
15	0	0	0	0	939	524	
0	0	0	0	0	939	524	
1	0	0	0	0	939	524	
2	0	0	0	0	939	522	
3	0	0	0	0	939	536	
4	0	0	0	0	939	542	
5	0	0	0	0	939	539	
6	0	0	0	0	939	534	
7	0	0	0	0	939	524	
8	0	0	0	0	939	523	
9	0	0	0	0	939	524	
10	0	0	0	0	939	524	
11	0	0	0	0	939	524	
12	0	0	0	0	939	523	
13	0	0	0	0	939	523	
14	0	0	0	0	939	518	
15	0	0	0	0	938	462	
0	0	0	0	0	938	480	
1	0	0	0	0	938	718	
2	0	0	0	0	938	643	
3	0	0	0	0	938	379	
4	0	0	0	0	937	451	
5	0	0	0	0	937	492	
6	0	0	0	0	937	536	
7	0	0	0	0	937	519	
8	0	0	0	0	937	527	
9	0	0	0	0	937	529	
10	0	0	0	0	937	529	
11	0	0	0	0	937	531	
12	0	0	0	0	937	534	
13	0	0	0	0	937	535	
14	0	0	0	0	937	536	
15	0	0	0	0	937	536	
0	0	0	0	0	937	536	
1	0	0	0	0	937	539	
2	0	0	0	0	937	539	
3	0	0	0	0	937	540	
4	0	0	0	0	937	545	
5	0	0	0	0	937	551	
6	0	0	0	0	937	556	
7	0	0	0	0	937	564	
8	0	0	0	0	937	572	
9	0	0	0	0	936	575	
10	0	0	0	0	936	568	
11	0	0	0	0	936	551	
12	0	0	0	0	936	539	
13	0	0	0	0	936	530	
14	0	0	0	0	936	524	
15	0	0	0	0	936	521	
0	0	0	0	0	936	519	
1	0	0	0	0	936	518	
2	0	0	0	0	936	516	
3	0	0	0	0	936	515	
4	0	0	0	0	936	515	
5	0	0	0	0	935	515	
6	0	0	0	0	935	515	
7	0	0	0	0	935	515	
8	0	0	0	0	935	516	
9	0	0	0	0	935	516	
10	0	0	0	0	935	518	
11	0	0	0	0	935	519	
12	0	0	0	0	935	521	
13	0	0	0	0	935	524	
14	0	0	0	0	935	524	
15	0	0	0	0	935	524	
0	0	0	0	0	935	524	
1	0	0	0	0	935	524	
2	0	0	0	0	935	524	
3	0	0	0	0	935	524	
4	0	0	0	0	935	524	
5	0	0	0	0	935	524	
6	0	0	0	0	935	524	
7	0	0	0	0	935	523	
8	0	0	0	0	935	526	
9	0	0	0	0	935	523	
10	0	0	0	0	935	526	
11	0	0	0	0	935	540	
12	0	0	0	0	935	537	
13	0	0	0	0	935	536	
14	0	0	0	0	935	531	
15	0	0	0	0	935	524	
0	0	0	0	0	935	526	
1	0	0	0	0	935	524	
2	0	0	0	0	935	524	
3	0	0	0	0	935	526	
4	0	0	0	0	935	527	
5	0	0	0	0	935	527	
6	0	0	0	0	935	507	
7	0	0	0	0	935	449	
8	0	0	0	0	935	540	
9	0	0	0	0	935	785	
10	0	0	0	0	935	502	
11	0	0	0	0	935	397	
12	0	0	0	0	935	455	
13	0	0	0	0	935	515	
14	0	0	0	0	935	536	
15	0	0	0	0	935	524	
0	0	0	0	0	935	534	
1	0	0	0	0	935	536	
2	0	0	0	0	935	536	
3	0	0	0	0	935	540	
4	0	0	0	0	935	540	
5	0	0	0	0	935	541	
6	0	0	0	0	935	542	
7	0	0	0	0	934	543	
8	0	0	0	0	934	543	
9	0	0	0	0	934	543	
10	0	0	0	0	934	543	
11	0	0	0	0	934	545	
12	0	0	0	0	934	548	
13	0	0	0	0	934	552	
14	0	0	0	0	934	560	
15	0	0	0	0	934	568	
0	0	0	0	0	934	575	
1	0	0	0	0	934	575	
2	0	0	0	0	934	563	
3	0	0	0	0	934	545	
4	0	0	0	0	934	534	
5	0	0	0	0	934	527	
6	0	0	0	0	934	521	
7	0	0	0	0	934	519	
8	0	0	0	0	934	519	
9	0	0	0	0	934	518	
10	0	0	0	0	934	518	
11	0	0	0	0	934	518	
12	0	0	0	0	934	518	
13	0	0	0	0	934	519	
14	0	0	0	0	934	519	
15	0	0	0	0	934	519	
0	0	0	0	0	934	519	
1	0	0	0	0	934	521	
2	0	0	0	0	934	522	
3	0	0	0	0	934	523	
4	0	0	0	0	934	524	
5	0	0	0	0	934	524	
6	0	0	0	0	934	524	
7	0	0	0	0	934	524	
8	0	0	0	0	934	524	
9	0	0	0	0	934	524	
10	0	0	0	0	934	524	
11	0	0	0	0	934	524	
12	0	0	0	0	935	524	
13	0	0	0	0	935	523	
14	0	0	0	0	935	524	
15	0	0	0	0	935	524	
0	0	0	0	0	935	521	
1	0	0	0	0	935	519	
2	0	0	0	0	935	534	
3	0	0	0	0	935	537	
4	0	0	0	0	935	534	
5	0	0	0	0	935	531	
6	0	0	0	0	935	519	
7	0	0	0	0	935	523	
8	0	0	0	0	935	523	
9	0	0	0	0	935	524	
10	0	0	0	0	935	526	
11	0	0	0	0	935	524	
12	0	0	0	0	935	524	
13	0	0	0	0	935	508	
14	0	0	0	0	935	455	
15	0	0	0	0	935	536	
0	0	0	0	0	935	768	
1	0	0	0	0	935	500	
2	0	0	0	0	935	393	
3	0	0	0	0	935	462	
4	0	0	0	0	935	513	
5	0	0	0	0	935	542	
6	0	0	0	0	935	529	
7	0	0	0	0	935	537	
8	0	0	0	0	935	540	
9	0	0	0	0	935	543	
10	0	0	0	0	935	543	
11	0	0	0	0	935	544	
12	0	0	0	0	935	547	
13	0	0	0	0	935	547	
14	0	0	0	0	935	547	
15	0	0	0	0	935	547	
0	0	0	0	0	935	550	
1	0	0	0	0	935	551	
2	0	0	0	0	935	553	
3	0	0	0	0	935	556	
4	0	0	0	0	935	563	
5	0	0	0	0	935	569	
6	0	0	0	0	935	577	
7	0	0	0	0	935	583	
8	0	0	0	0	935	583	
9	0	0	0	0	935	571	
10	0	0	0	0	935	555	
11	0	0	0	0	935	540	
12	0	0	0	0	935	531	
13	0	0	0	0	935	526	
14	0	0	0	0	935	523	
15	0	0	0	0	935	521	
0	0	0	0	0	935	519	
1	0	0	0	0	935	519	
2	0	0	0	0	935	519	
3	0	0	0	0	935	518	
4	0	0	0	0	935	519	
5	0	0	0	0	935	519	
6	0	0	0	0	935	520	
7	0	0	0	0	935	521	
8	0	0	0	0	935	523	
9	0	0	0	0	935	524	
10	0	0	0	0	935	525	
11	0	0	0	0	935	526	
12	0	0	0	0	935	527	
13	0	0	0	0	935	527	
14	0	0	0	0	935	527	
15	0	0	0	0	935	527	
0	0	0	0	0	935	526	
1	0	0	0	0	935	526	
2	0	0	0	0	935	527	
3	0	0	0	0	935	524	
4	0	0	0	0	935	523	
5	0	0	0	0	935	532	
6	0	0	0	0	935	540	
7	0	0	0	0	935	535	
8	0	0	0	0	935	532	
9	0	0	0	0	935	523	
10	0	0	0	0	935	524	
11	0	0	0	0	935	524	
12	0	0	0	0	935	524	
13	0	0	0	0	935	526	
14	0	0	0	0	935	527	
15	0	0	0	0	935	527	
0	0	0	0	0	935	519	
1	0	0	0	0	935	472	
2	0	0	0	0	935	504	
3	0	0	0	0	935	721	
4	0	0	0	0	935	583	
5	0	0	0	0	935	376	
6	0	0	0	0	935	449	
7	0	0	0	0	935	480	
8	0	0	0	0	935	540	
9	0	0	0	0	935	527	
10	0	0	0	0	935	531	
11	0	0	0	0	935	535	
12	0	0	0	0	935	536	
13	0	0	0	0	935	537	
14	0	0	0	0	935	539	
15	0	0	0	0	935	541	
0	0	0	0	0	935	543	
1	0	0	0	0	935	545	
2	0	0	0	0	935	547	
3	0	0	0	0	935	548	
4	0	0	0	0	935	551	
5	0	0	0	0	935	553	
6	0	0	0	0	935	559	
7	0	0	0	0	935	563	
8	0	0	0	0	935	569	
9	0	0	0	0	935	575	
10	0	0	0	0	935	582	
11	0	0	0	0	935	582	
12	0	0	0	0	935	568	
13	0	0	0	0	935	551	
14	0	0	0	0	935	536	
15	0	0	0	0	935	527	
0	0	0	0	0	935	523	
1	0	0	0	0	935	521	
2	0	0	0	0	935	520	
3	0	0	0	0	935	519	
4	0	0	0	0	935	519	
5	0	0	0	0	935	519	
6	0	0	0	0	935	519	
7	0	0	0	0	935	518	
8	0	0	0	0	935	519	
9	0	0	0	0	935	519	
10	0	0	0	0	935	519	
11	0	0	0	0	935	522	
12	0	0	0	0	935	524	
13	0	0	0	0	935	523	
14	0	0	0	0	935	524	
15	0	0	0	0	935	524	
0	0	0	0	0	935	524	
1	0	0	0	0	935	524	
2	0	0	0	0	935	526	
3	0	0	0	0	935	524	
4	0	0	0	0	935	526	
5	0	0	0	0	935	525	
6	0	0	0	0	935	527	
7	0	0	0	0	935	527	
8	0	0	0	0	935	523	
9	0	0	0	0	935	524	
10	0	0	0	0	935	539	
11	0	0	0	0	935	537	
12	0	0	0	0	935	535	
13	0	0	0	0	935	527	
14	0	0	0	0	935	521	
15	0	0	0	0	935	524	
0	0	0	0	0	935	525	
1	0	0	0	0	935	524	
2	0	0	0	0	935	524	
3	0	0	0	0	935	526	
4	0	0	0	0	935	524	
5	0	0	0	0	935	497	
6	0	0	0	0	935	455	
7	0	0	0	0	935	588	
8	0	0	0	0	935	771	
9	0	0	0	0	935	440	
10	0	0	0	0	935	422	
11	0	0	0	0	935	468	
12	0	0	0	0	935	528	
13	0	0	0	0	935	529	
14	0	0	0	0	935	527	
15	0	0	0	0	935	532	
0	0	0	0	0	935	535	
1	0	0	0	0	935	536	
2	0	0	0	0	935	537	
3	0	0	0	0	935	540	
4	0	0	0	0	935	540	
5	0	0	0	0	935	542	
6	0	0	0	0	935	543	
7	0	0	0	0	935	543	
8	0	0	0	0	935	543	
9	0	0	0	0	935	544	
10	0	0	0	0	935	545	
11	0	0	0	0	935	551	
12	0	0	0	0	935	556	
13	0	0	0	0	935	563	
14	0	0	0	0	935	569	
15	0	0	0	0	935	575	
0	0	0	0	0	935	572	
1	0	0	0	0	934	559	
2	0	0	0	0	934	543	
3	0	0	0	0	934	531	
4	0	0	0	0	934	524	
5	0	0	0	0	934	519	
6	0	0	0	0	934	519	
7	0	0	0	0	934	519	
8	0	0	0	0	934	518	
9	0	0	0	0	934	518	
10	0	0	0	0	934	516	
11	0	0	0	0	934	516	
12	0	0	0	0	934	515	
13	0	0	0	0	934	516	
14	0	0	0	0	934	516	
15	0	0	0	0	934	518	
0	0	0	0	0	934	518	
1	0	0	0	0	934	519	
2	0	0	0	0	934	520	
3	0	0	0	0	934	521	
4	0	0	0	0	934	520	
5	0	0	0	0	934	521	
6	0	0	0	0	934	519	
7	0	0	0	0	934	519	
8	0	0	0	0	934	519	
9	0	0	0	0	934	519	
10	0	0	0	0	934	519	
11	0	0	0	0	934	519	
12	0	0	0	0	934	515	
13	0	0	0	0	934	513	
14	0	0	0	0	934	527	
15	0	0	0	0	934	532	
0	0	0	0	0	934	527	
1	0	0	0	0	934	526	
2	0	0	0	0	934	515	
3	0	0	0	0	934	518	
4	0	0	0	0	934	516	
5	0	0	0	0	934	515	
6	0	0	0	0	934	515	
7	0	0	0	0	934	518	
8	0	0	0	0	934	518	
9	0	0	0	0	934	504	
10	0	0	0	0	934	449	
11	0	0	0	0	934	525	
12	0	0	0	0	934	774	
13	0	0	0	0	934	526	
14	0	0	0	0	934	396	
15	0	0	0	0	933	455	
0	0	0	0	0	933	510	
1	0	0	0	0	934	529	
2	0	0	0	0	933	519	
3	0	0	0	0	933	526	
4	0	0	0	0	933	529	
5	0	0	0	0	933	531	
6	0	0	0	0	933	534	
7	0	0	0	0	933	536	
8	0	0	0	0	932	536	
9	0	0	0	0	932	537	
10	0	0	0	0	932	540	
11	0	0	0	0	932	541	
12	0	0	0	0	932	540	
13	0	0	0	0	932	542	
14	0	0	0	0	932	543	
15	0	0	0	0	932	545	
0	0	0	0	0	932	551	
1	0	0	0	0	932	558	
2	0	0	0	0	932	566	
3	0	0	0	0	932	572	
4	0	0	0	0	932	572	
5	0	0	0	0	932	560	
6	0	0	0	0	932	543	
7	0	0	0	0	932	531	
8	0	0	0	0	932	524	
9	0	0	0	0	932	519	
10	0	0	0	0	932	515	
11	0	0	0	0	932	515	
12	0	0	0	0	932	515	
13	0	0	0	0	932	513	
14	0	0	0	0	932	513	
15	0	0	0	0	932	512	
0	0	0	0	0	932	513	
1	0	0	0	0	932	513	
2	0	0	0	0	932	513	
3	0	0	0	0	932	515	
4	0	0	0	0	932	514	
5	0	0	0	0	932	515	
6	0	0	0	0	932	518	
7	0	0	0	0	932	519	
8	0	0	0	0	932	519	
9	0	0	0	0	932	518	
10	0	0	0	0	932	516	
11	0	0	0	0	932	518	
12	0	0	0	0	932	519	
13	0	0	0	0	932	519	
14	0	0	0	0	932	519	
15	0	0	0	0	932	519	
0	0	0	0	0	932	521	
1	0	0	0	0	932	519	
2	0	0	0	0	932	519	
3	0	0	0	0	932	536	
4	0	0	0	0	932	534	
5	0	0	0	0	932	531	
6	0	0	0	0	932	527	
7	0	0	0	0	931	519	
8	0	0	0	0	932	520	
9	0	0	0	0	931	519	
10	0	0	0	0	931	519	
11	0	0	0	0	931	523	
12	0	0	0	0	931	523	
13	0	0	0	0	931	523	
14	0	0	0	0	931	503	
15	0	0	0	0	931	451	
0	0	0	0	0	931	555	
1	0	0	0	0	931	787	
2	0	0	0	0	931	483	
3	0	0	0	0	931	407	
4	0	0	0	0	931	463	
5	0	0	0	0	931	519	
6	0	0	0	0	931	531	
7	0	0	0	0	931	524	
8	0	0	0	0	931	531	
9	0	0	0	0	931	532	
10	0	0	0	0	931	535	
11	0	0	0	0	931	536	
12	0	0	0	0	931	536	
13	0	0	0	0	931	539	
14	0	0	0	0	931	540	
15	0	0	0	0	931	540	
0	0	0	0	0	931	542	
1	0	0	0	0	931	543	
2	0	0	0	0	931	545	
3	0	0	0	0	931	547	
4	0	0	0	0	932	551	
5	0	0	0	0	931	558	
6	0	0	0	0	931	563	
7	0	0	0	0	931	572	
8	0	0	0	0	932	579	
9	0	0	0	0	932	575	
10	0	0	0	0	931	563	
11	0	0	0	0	931	547	
12	0	0	0	0	932	536	
13	0	0	0	0	932	529	
14	0	0	0	0	932	527	
15	0	0	0	0	932	523	
0	0	0	0	0	932	521	
1	0	0	0	0	932	519	
2	0	0	0	0	932	519	
3	0	0	0	0	932	519	
4	0	0	0	0	932	519	
5	0	0	0	0	932	519	
6	0	0	0	0	932	519	
7	0	0	0	0	932	520	
8	0	0	0	0	932	523	
9	0	0	0	0	932	524	
10	0	0	0	0	932	524	
11	0	0	0	0	932	526	
12	0	0	0	0	932	527	
13	0	0	0	0	932	527	
14	0	0	0	0	932	527	
15	0	0	0	0	932	527	
0	0	0	0	0	932	529	
1	0	0	0	0	932	527	
2	0	0	0	0	932	527	
3	0	0	0	0	932	527	
4	0	0	0	0	932	527	
5	0	0	0	0	932	526	
6	0	0	0	0	932	531	
7	0	0	0	0	932	543	
8	0	0	0	0	932	540	
9	0	0	0	0	932	539	
10	0	0	0	0	932	529	
11	0	0	0	0	932	528	
12	0	0	0	0	932	529	
13	0	0	0	0	932	527	
14	0	0	0	0	932	529	
15	0	0	0	0	932	527	
0	0	0	0	0	932	527	
1	0	0	0	0	932	527	
2	0	0	0	0	932	493	
3	0	0	0	0	932	472	
4	0	0	0	0	932	632	
5	0	0	0	0	932	724	
6	0	0	0	0	932	393	
7	0	0	0	0	932	432	
8	0	0	0	0	932	462	
9	0	0	0	0	932	531	
10	0	0	0	0	932	536	
11	0	0	0	0	932	531	
12	0	0	0	0	932	539	
13	0	0	0	0	932	542	
14	0	0	0	0	932	543	
15	0	0	0	0	932	543	
0	0	0	0	0	932	545	
1	0	0	0	0	932	545	
2	0	0	0	0	932	548	
3	0	0	0	0	932	550	
4	0	0	0	0	932	550	
5	0	0	0	0	932	551	
6	0	0	0	0	932	553	
7	0	0	0	0	932	556	
8	0	0	0	0	932	561	
9	0	0	0	0	932	568	
10	0	0	0	0	932	575	
11	0	0	0	0	932	579	
12	0	0	0	0	932	583	
13	0	0	0	0	932	572	
14	0	0	0	0	932	556	
15	0	0	0	0	932	539	
0	0	0	0	0	932	527	
1	0	0	0	0	932	523	
2	0	0	0	0	932	519	
3	0	0	0	0	932	518	
4	0	0	0	0	932	515	
5	0	0	0	0	932	515	
6	0	0	0	0	932	513	
7	0	0	0	0	932	515	
8	0	0	0	0	932	515	
9	0	0	0	0	932	517	
10	0	0	0	0	932	519	
11	0	0	0	0	932	519	
12	0	0	0	0	932	521	
13	0	0	0	0	932	524	
14	0	0	0	0	932	524	
15	0	0	0	0	932	524	
0	0	0	0	0	932	524	
1	0	0	0	0	932	526	
2	0	0	0	0	932	526	
3	0	0	0	0	932	526	
4	0	0	0	0	932	526	
5	0	0	0	0	932	527	
6	0	0	0	0	932	526	
7	0	0	0	0	932	526	
8	0	0	0	0	932	524	
9	0	0	0	0	932	524	
10	0	0	0	0	932	524	
11	0	0	0	0	932	519	
12	0	0	0	0	932	529	
13	0	0	0	0	932	536	
14	0	0	0	0	932	533	
15	0	0	0	0	932	531	
0	0	0	0	0	931	523	
1	0	0	0	0	931	523	
2	0	0	0	0	931	523	
3	0	0	0	0	931	521	
4	0	0	0	0	931	523	
5	0	0	0	0	931	521	
6	0	0	0	0	931	523	
7	0	0	0	0	931	518	
8	0	0	0	0	931	464	
9	0	0	0	0	931	487	
10	0	0	0	0	931	723	
11	0	0	0	0	931	637	
12	0	0	0	0	931	385	
13	0	0	0	0	931	451	
14	0	0	0	0	931	495	
15	0	0	0	0	931	539	
0	0	0	0	0	931	526	
1	0	0	0	0	931	531	
2	0	0	0	0	931	536	
3	0	0	0	0	931	537	
4	0	0	0	0	931	539	
5	0	0	0	0	931	540	
6	0	0	0	0	931	540	
7	0	0	0	0	931	543	
8	0	0	0	0	931	543	
9	0	0	0	0	931	543	
10	0	0	0	0	931	543	
11	0	0	0	0	931	545	
12	0	0	0	0	931	547	
13	0	0	0	0	931	548	
14	0	0	0	0	931	556	
15	0	0	0	0	931	561	
0	0	0	0	0	931	572	
1	0	0	0	0	931	579	
2	0	0	0	0	931	580	
3	0	0	0	0	931	572	
4	0	0	0	0	931	553	
5	0	0	0	0	931	542	
6	0	0	0	0	931	531	
7	0	0	0	0	931	526	
8	0	0	0	0	931	524	
9	0	0	0	0	931	521	
10	0	0	0	0	931	519	
11	0	0	0	0	931	519	
12	0	0	0	0	931	519	
13	0	0	0	0	931	519	
14	0	0	0	0	931	519	
15	0	0	0	0	931	519	
0	0	0	0	0	931	519	
1	0	0	0	0	931	521	
2	0	0	0	0	931	524	
3	0	0	0	0	931	524	
4	0	0	0	0	931	524	
5	0	0	0	0	931	524	
6	0	0	0	0	931	526	
7	0	0	0	0	931	524	
8	0	0	0	0	931	527	
9	0	0	0	0	931	527	
10	0	0	0	0	931	527	
11	0	0	0	0	931	526	
12	0	0	0	0	931	526	
13	0	0	0	0	931	527	
14	0	0	0	0	931	525	
15	0	0	0	0	931	526	
0	0	0	0	0	931	524	
1	0	0	0	0	931	524	
2	0	0	0	0	931	537	
3	0	0	0	0	931	537	
4	0	0	0	0	931	536	
5	0	0	0	0	931	529	
6	0	0	0	0	931	524	
7	0	0	0	0	931	524	
8	0	0	0	0	931	524	
9	0	0	0	0	931	525	
10	0	0	0	0	931	524	
11	0	0	0	0	931	524	
12	0	0	0	0	931	524	
13	0	0	0	0	931	504	
14	0	0	0	0	931	451	
15	0	0	0	0	931	550	
0	0	0	0	0	931	792	
1	0	0	0	0	931	496	
2	0	0	0	0	931	405	
3	0	0	0	0	931	462	
4	0	0	0	0	931	520	
5	0	0	0	0	931	534	
6	0	0	0	0	931	524	
7	0	0	0	0	931	531	
8	0	0	0	0	931	534	
9	0	0	0	0	931	536	
10	0	0	0	0	931	536	
11	0	0	0	0	931	536	
12	0	0	0	0	931	537	
13	0	0	0	0	931	539	
14	0	0	0	0	931	540	
15	0	0	0	0	931	540	
0	0	0	0	0	931	540	
1	0	0	0	0	931	543	
2	0	0	0	0	931	545	
3	0	0	0	0	931	550	
4	0	0	0	0	931	556	
5	0	0	0	0	931	561	
6	0	0	0	0	931	571	
7	0	0	0	0	931	575	
8	0	0	0	0	931	574	
9	0	0	0	0	931	561	
10	0	0	0	0	931	545	
11	0	0	0	0	931	535	
12	0	0	0	0	931	527	
13	0	0	0	0	931	521	
14	0	0	0	0	931	519	
15	0	0	0	0	931	519	
0	0	0	0	0	931	519	
1	0	0	0	0	931	519	
2	0	0	0	0	931	519	
3	0	0	0	0	931	519	
4	0	0	0	0	931	519	
5	0	0	0	0	931	519	
6	0	0	0	0	931	519	
7	0	0	0	0	931	519	
8	0	0	0	0	931	519	
9	0	0	0	0	931	523	
10	0	0	0	0	931	524	
11	0	0	0	0	931	523	
12	0	0	0	0	931	524	
13	0	0	0	0	931	527	
14	0	0	0	0	931	527	
15	0	0	0	0	930	527	
0	0	0	0	0	930	527	
1	0	0	0	0	930	527	
2	0	0	0	0	930	527	
3	0	0	0	0	930	527	
4	0	0	0	0	930	527	
5	0	0	0	0	930	526	
6	0	0	0	0	930	523	
7	0	0	0	0	930	535	
8	0	0	0	0	930	543	
9	0	0	0	0	930	539	
10	0	0	0	0	930	537	
11	0	0	0	0	930	527	
12	0	0	0	0	930	527	
13	0	0	0	0	930	527	
14	0	0	0	0	930	527	
15	0	0	0	0	930	527	
0	0	0	0	0	930	528	
1	0	0	0	0	930	527	
2	0	0	0	0	930	523	
3	0	0	0	0	930	471	
4	0	0	0	0	930	487	
5	0	0	0	0	930	721	
6	0	0	0	0	930	652	
7	0	0	0	0	930	379	
8	0	0	0	0	930	448	
9	0	0	0	0	930	487	
10	0	0	0	0	930	541	
11	0	0	0	0	930	527	
12	0	0	0	0	930	534	
13	0	0	0	0	930	536	
14	0	0	0	0	930	537	
15	0	0	0	0	929	540	
0	0	0	0	0	929	541	
1	0	0	0	0	930	542	
2	0	0	0	0	930	543	
3	0	0	0	0	930	545	
4	0	0	0	0	930	545	
5	0	0	0	0	930	547	
6	0	0	0	0	930	547	
7	0	0	0	0	930	548	
8	0	0	0	0	930	553	
9	0	0	0	0	930	559	
10	0	0	0	0	929	566	
11	0	0	0	0	930	574	
12	0	0	0	0	929	582	
13	0	0	0	0	929	583	
14	0	0	0	0	929	572	
15	0	0	0	0	929	553	
0	0	0	0	0	929	537	
1	0	0	0	0	929	528	
2	0	0	0	0	930	524	
3	0	0	0	0	929	519	
4	0	0	0	0	929	518	
5	0	0	0	0	929	518	
6	0	0	0	0	929	517	
7	0	0	0	0	929	515	
8	0	0	0	0	929	515	
9	0	0	0	0	929	515	
10	0	0	0	0	929	515	
11	0	0	0	0	929	518	
12	0	0	0	0	929	519	
13	0	0	0	0	929	519	
14	0	0	0	0	929	519	
15	0	0	0	0	929	521	
0	0	0	0	0	929	521	
1	0	0	0	0	929	521	
2	0	0	0	0	929	520	
3	0	0	0	0	929	520	
4	0	0	0	0	929	519	
5	0	0	0	0	929	521	
6	0	0	0	0	929	524	
7	0	0	0	0	929	521	
8	0	0	0	0	929	521	
9	0	0	0	0	929	521	
10	0	0	0	0	929	519	
11	0	0	0	0	929	531	
12	0	0	0	0	929	540	
13	0	0	0	0	929	534	
14	0	0	0	0	929	534	
15	0	0	0	0	929	524	
0	0	0	0	0	929	524	
1	0	0	0	0	929	524	
2	0	0	0	0	929	523	
3	0	0	0	0	929	524	
4	0	0	0	0	929	525	
5	0	0	0	0	929	524	
6	0	0	0	0	929	519	
7	0	0	0	0	929	473	
8	0	0	0	0	929	497	
9	0	0	0	0	929	704	
10	0	0	0	0	929	600	
11	0	0	0	0	929	371	
12	0	0	0	0	929	446	
13	0	0	0	0	929	467	
14	0	0	0	0	929	536	
15	0	0	0	0	929	529	
0	0	0	0	0	929	532	
1	0	0	0	0	929	537	
2	0	0	0	0	929	537	
3	0	0	0	0	929	540	
4	0	0	0	0	929	542	
5	0	0	0	0	929	543	
6	0	0	0	0	929	545	
7	0	0	0	0	929	547	
8	0	0	0	0	929	547	
9	0	0	0	0	929	551	
10	0	0	0	0	929	551	
11	0	0	0	0	929	553	
12	0	0	0	0	929	558	
13	0	0	0	0	929	563	
14	0	0	0	0	929	571	
15	0	0	0	0	929	575	
0	0	0	0	0	929	583	
1	0	0	0	0	929	579	
2	0	0	0	0	929	565	
3	0	0	0	0	929	545	
4	0	0	0	0	929	531	
5	0	0	0	0	929	521	
6	0	0	0	0	929	517	
7	0	0	0	0	929	515	
8	0	0	0	0	929	513	
9	0	0	0	0	929	512	
10	0	0	0	0	929	511	
11	0	0	0	0	929	511	
12	0	0	0	0	929	509	
13	0	0	0	0	929	510	
14	0	0	0	0	929	511	
15	0	0	0	0	929	513	
0	0	0	0	0	929	515	
1	0	0	0	0	929	515	
2	0	0	0	0	929	518	
3	0	0	0	0	929	519	
4	0	0	0	0	929	518	
5	0	0	0	0	929	519	
6	0	0	0	0	929	519	
7	0	0	0	0	929	519	
8	0	0	0	0	929	519	
9	0	0	0	0	929	519	
10	0	0	0	0	929	519	
11	0	0	0	0	929	520	
12	0	0	0	0	929	520	
13	0	0	0	0	929	521	
14	0	0	0	0	929	518	
15	0	0	0	0	929	515	
0	0	0	0	0	929	529	
1	0	0	0	0	929	534	
2	0	0	0	0	930	531	
3	0	0	0	0	929	527	
4	0	0	0	0	929	519	
5	0	0	0	0	929	519	
6	0	0	0	0	929	519	
7	0	0	0	0	929	519	
8	0	0	0	0	929	519	
9	0	0	0	0	929	519	
10	0	0	0	0	929	519	
11	0	0	0	0	929	504	
12	0	0	0	0	929	451	
13	0	0	0	0	929	525	
14	0	0	0	0	929	764	
15	0	0	0	0	929	524	
0	0	0	0	0	929	391	
1	0	0	0	0	929	451	
2	0	0	0	0	929	502	
3	0	0	0	0	929	531	
4	0	0	0	0	930	519	
5	0	0	0	0	930	526	
6	0	0	0	0	929	527	
7	0	0	0	0	930	529	
8	0	0	0	0	930	531	
9	0	0	0	0	930	534	
10	0	0	0	0	930	536	
11	0	0	0	0	930	536	
12	0	0	0	0	930	536	
13	0	0	0	0	930	537	
14	0	0	0	0	930	537	
15	0	0	0	0	930	537	
0	0	0	0	0	930	540	
1	0	0	0	0	930	543	
2	0	0	0	0	930	551	
3	0	0	0	0	930	558	
4	0	0	0	0	930	567	
5	0	0	0	0	930	572	
6	0	0	0	0	930	569	
7	0	0	0	0	930	556	
8	0	0	0	0	930	540	
9	0	0	0	0	929	527	
10	0	0	0	0	930	520	
11	0	0	0	0	930	518	
12	0	0	0	0	930	514	
13	0	0	0	0	930	513	
14	0	0	0	0	930	513	
15	0	0	0	0	930	511	
0	0	0	0	0	930	512	
1	0	0	0	0	930	511	
2	0	0	0	0	929	511	
3	0	0	0	0	930	511	
4	0	0	0	0	929	511	
5	0	0	0	0	930	512	
6	0	0	0	0	930	512	
7	0	0	0	0	930	513	
8	0	0	0	0	930	515	
9	0	0	0	0	930	518	
10	0	0	0	0	930	518	
11	0	0	0	0	930	518	
12	0	0	0	0	930	518	
13	0	0	0	0	930	519	
14	0	0	0	0	930	518	
15	0	0	0	0	930	518	
0	0	0	0	0	930	518	
1	0	0	0	0	930	515	
2	0	0	0	0	930	518	
3	0	0	0	0	931	518	
4	0	0	0	0	931	515	
5	0	0	0	0	931	516	
6	0	0	0	0	931	529	
7	0	0	0	0	931	529	
8	0	0	0	0	931	528	
9	0	0	0	0	931	523	
10	0	0	0	0	931	518	
11	0	0	0	0	931	519	
12	0	0	0	0	931	518	
13	0	0	0	0	931	518	
14	0	0	0	0	931	518	
15	0	0	0	0	931	517	
0	0	0	0	0	931	518	
1	0	0	0	0	931	497	
2	0	0	0	0	931	444	
3	0	0	0	0	931	543	
4	0	0	0	0	931	783	
5	0	0	0	0	931	496	
6	0	0	0	0	931	399	
7	0	0	0	0	931	451	
8	0	0	0	0	931	510	
9	0	0	0	0	931	524	
10	0	0	0	0	932	515	
11	0	0	0	0	932	524	
12	0	0	0	0	932	524	
13	0	0	0	0	932	527	
14	0	0	0	0	932	527	
15	0	0	0	0	932	531	
0	0	0	0	0	932	531	
1	0	0	0	0	932	534	
2	0	0	0	0	932	535	
3	0	0	0	0	933	536	
4	0	0	0	0	933	536	
5	0	0	0	0	934	537	
6	0	0	0	0	934	541	
7	0	0	0	0	934	545	
8	0	0	0	0	934	550	
9	0	0	0	0	934	558	
10	0	0	0	0	934	566	
11	0	0	0	0	934	572	
12	0	0	0	0	934	570	
13	0	0	0	0	935	556	
14	0	0	0	0	935	540	
15	0	0	0	0	935	527	
0	0	0	0	0	935	519	
1	0	0	0	0	935	516	
2	0	0	0	0	935	513	
3	0	0	0	0	935	512	
4	0	0	0	0	935	512	
5	0	0	0	0	935	512	
6	0	0	0	0	935	511	
7	0	0	0	0	935	510	
8	0	0	0	0	935	511	
9	0	0	0	0	935	511	
10	0	0	0	0	935	510	
11	0	0	0	0	935	511	
12	0	0	0	0	935	512	
13	0	0	0	0	935	512	
14	0	0	0	0	935	515	
15	0	0	0	0	935	513	
0	0	0	0	0	935	513	
1	0	0	0	0	935	515	
2	0	0	0	0	935	515	
3	0	0	0	0	935	514	
4	0	0	0	0	935	513	
5	0	0	0	0	936	514	
6	0	0	0	0	936	513	
7	0	0	0	0	936	513	
8	0	0	0	0	936	513	
9	0	0	0	0	936	512	
10	0	0	0	0	936	513	
11	0	0	0	0	936	511	
12	0	0	0	0	936	513	
13	0	0	0	0	936	524	
14	0	0	0	0	936	521	
15	0	0	0	0	936	519	
0	0	0	0	0	936	511	
1	0	0	0	0	936	505	
2	0	0	0	0	936	507	
3	0	0	0	0	936	508	
4	0	0	0	0	936	508	
5	0	0	0	0	936	508	
6	0	0	0	0	937	510	
7	0	0	0	0	937	510	
8	0	0	0	0	937	489	
9	0	0	0	0	937	438	
10	0	0	0	0	937	537	
11	0	0	0	0	937	780	
12	0	0	0	0	937	483	
13	0	0	0	0	937	391	
14	0	0	0	0	937	444	
15	0	0	0	0	937	504	
0	0	0	0	0	937	523	
1	0	0	0	0	937	513	
2	0	0	0	0	937	522	
3	0	0	0	0	937	524	
4	0	0	0	0	937	524	
5	0	0	0	0	937	527	
6	0	0	0	0	937	527	
7	0	0	0	0	937	531	
8	0	0	0	0	937	531	
9	0	0	0	0	937	531	
10	0	0	0	0	937	534	
11	0	0	0	0	937	534	
12	0	0	0	0	937	536	
13	0	0	0	0	937	537	
14	0	0	0	0	937	543	
15	0	0	0	0	937	547	
0	0	0	0	0	937	555	
1	0	0	0	0	937	563	
2	0	0	0	0	936	571	
3	0	0	0	0	936	569	
4	0	0	0	0	936	556	
5	0	0	0	0	936	536	
6	0	0	0	0	936	526	
7	0	0	0	0	936	519	
8	0	0	0	0	936	515	
9	0	0	0	0	936	515	
10	0	0	0	0	936	513	
11	0	0	0	0	936	511	
12	0	0	0	0	936	512	
13	0	0	0	0	936	511	
14	0	0	0	0	936	511	
15	0	0	0	0	936	511	
0	0	0	0	0	936	510	
1	0	0	0	0	936	511	
2	0	0	0	0	936	512	
3	0	0	0	0	936	512	
4	0	0	0	0	936	513	
5	0	0	0	0	936	515	
6	0	0	0	0	935	515	
7	0	0	0	0	935	516	
8	0	0	0	0	935	515	
9	0	0	0	0	935	515	
10	0	0	0	0	935	518	
11	0	0	0	0	935	518	
12	0	0	0	0	935	519	
13	0	0	0	0	935	519	
14	0	0	0	0	935	519	
15	0	0	0	0	935	519	
0	0	0	0	0	935	519	
1	0	0	0	0	935	519	
2	0	0	0	0	935	515	
3	0	0	0	0	935	518	
4	0	0	0	0	935	531	
5	0	0	0	0	935	528	
6	0	0	0	0	935	527	
7	0	0	0	0	935	519	
8	0	0	0	0	935	518	
9	0	0	0	0	935	519	
10	0	0	0	0	935	518	
11	0	0	0	0	935	519	
12	0	0	0	0	935	518	
13	0	0	0	0	935	519	
14	0	0	0	0	935	519	
15	0	0	0	0	935	496	
0	0	0	0	0	935	452	
1	0	0	0	0	935	563	
2	0	0	0	0	935	764	
3	0	0	0	0	935	444	
4	0	0	0	0	935	399	
5	0	0	0	0	935	450	
6	0	0	0	0	935	508	
7	0	0	0	0	935	531	
8	0	0	0	0	935	519	
9	0	0	0	0	935	528	
10	0	0	0	0	935	531	
11	0	0	0	0	935	535	
12	0	0	0	0	935	536	
13	0	0	0	0	935	536	
14	0	0	0	0	935	539	
15	0	0	0	0	935	540	
0	0	0	0	0	935	542	
1	0	0	0	0	935	543	
2	0	0	0	0	935	543	
3	0	0	0	0	935	543	
4	0	0	0	0	935	547	
5	0	0	0	0	935	551	
6	0	0	0	0	935	559	
7	0	0	0	0	935	566	
8	0	0	0	0	935	572	
9	0	0	0	0	934	579	
10	0	0	0	0	934	575	
11	0	0	0	0	934	560	
12	0	0	0	0	934	543	
13	0	0	0	0	934	530	
14	0	0	0	0	934	521	
15	0	0	0	0	934	515	
0	0	0	0	0	934	515	
1	0	0	0	0	934	513	
2	0	0	0	0	934	511	
3	0	0	0	0	934	511	
4	0	0	0	0	934	510	
5	0	0	0	0	934	510	
6	0	0	0	0	934	510	
7	0	0	0	0	934	511	
8	0	0	0	0	934	511	
9	0	0	0	0	934	512	
10	0	0	0	0	934	513	
11	0	0	0	0	934	513	
12	0	0	0	0	934	515	
13	0	0	0	0	934	515	
14	0	0	0	0	934	515	
15	0	0	0	0	934	516	
0	0	0	0	0	934	515	
1	0	0	0	0	933	518	
2	0	0	0	0	933	516	
3	0	0	0	0	933	517	
4	0	0	0	0	933	516	
5	0	0	0	0	932	515	
6	0	0	0	0	932	518	
7	0	0	0	0	932	515	
8	0	0	0	0	932	516	
9	0	0	0	0	932	531	
10	0	0	0	0	932	529	
11	0	0	0	0	932	527	
12	0	0	0	0	932	523	
13	0	0	0	0	932	516	
14	0	0	0	0	932	519	
15	0	0	0	0	932	518	
0	0	0	0	0	932	519	
1	0	0	0	0	932	519	
2	0	0	0	0	932	519	
3	0	0	0	0	932	519	
4	0	0	0	0	932	499	
5	0	0	0	0	932	452	
6	0	0	0	0	932	553	
7	0	0	0	0	932	755	
8	0	0	0	0	932	459	
9	0	0	0	0	932	399	
10	0	0	0	0	932	448	
11	0	0	0	0	932	502	
12	0	0	0	0	932	531	
13	0	0	0	0	932	519	
14	0	0	0	0	932	527	
15	0	0	0	0	931	529	
0	0	0	0	0	931	531	
1	0	0	0	0	931	534	
2	0	0	0	0	931	535	
3	0	0	0	0	931	536	
4	0	0	0	0	931	537	
5	0	0	0	0	931	540	
6	0	0	0	0	931	540	
7	0	0	0	0	931	540	
8	0	0	0	0	931	543	
9	0	0	0	0	931	545	
10	0	0	0	0	931	550	
11	0	0	0	0	931	555	
12	0	0	0	0	931	561	
13	0	0	0	0	931	568	
14	0	0	0	0	931	574	
15	0	0	0	0	931	569	
0	0	0	0	0	931	556	
1	0	0	0	0	931	537	
2	0	0	0	0	931	526	
3	0	0	0	0	931	519	
4	0	0	0	0	931	513	
5	0	0	0	0	931	511	
6	0	0	0	0	931	511	
7	0	0	0	0	931	510	
8	0	0	0	0	931	510	
9	0	0	0	0	931	508	
10	0	0	0	0	931	510	
11	0	0	0	0	931	508	
12	0	0	0	0	931	508	
13	0	0	0	0	931	508	
14	0	0	0	0	931	510	
15	0	0	0	0	931	510	
0	0	0	0	0	931	511	
1	0	0	0	0	931	512	
2	0	0	0	0	931	513	
3	0	0	0	0	931	513	
4	0	0	0	0	931	513	
5	0	0	0	0	931	515	
6	0	0	0	0	931	515	
7	0	0	0	0	931	515	
8	0	0	0	0	931	515	
9	0	0	0	0	931	516	
10	0	0	0	0	931	515	
11	0	0	0	0	931	515	
12	0	0	0	0	931	515	
13	0	0	0	0	931	512	
14	0	0	0	0	931	515	
15	0	0	0	0	931	527	
0	0	0	0	0	931	526	
1	0	0	0	0	931	524	
2	0	0	0	0	931	518	
3	0	0	0	0	931	512	
4	0	0	0	0	931	512	
5	0	0	0	0	931	512	
6	0	0	0	0	931	512	
7	0	0	0	0	931	513	
8	0	0	0	0	931	515	
9	0	0	0	0	931	515	
10	0	0	0	0	931	487	
11	0	0	0	0	931	446	
12	0	0	0	0	931	575	
13	0	0	0	0	931	771	
14	0	0	0	0	931	443	
15	0	0	0	0	931	408	
0	0	0	0	0	931	455	
1	0	0	0	0	931	518	
2	0	0	0	0	931	521	
3	0	0	0	0	931	518	
4	0	0	0	0	931	524	
5	0	0	0	0	931	526	
6	0	0	0	0	931	527	
7	0	0	0	0	931	531	
8	0	0	0	0	931	531	
9	0	0	0	0	931	531	
10	0	0	0	0	931	534	
11	0	0	0	0	931	535	
12	0	0	0	0	931	534	
13	0	0	0	0	931	535	
14	0	0	0	0	931	536	
15	0	0	0	0	931	537	
0	0	0	0	0	931	542	
1	0	0	0	0	931	547	
2	0	0	0	0	931	556	
3	0	0	0	0	931	563	
4	0	0	0	0	931	569	
5	0	0	0	0	931	568	
6	0	0	0	0	931	556	
7	0	0	0	0	931	539	
8	0	0	0	0	931	527	
9	0	0	0	0	931	519	
10	0	0	0	0	931	516	
11	0	0	0	0	932	515	
12	0	0	0	0	932	515	
13	0	0	0	0	932	513	
14	0	0	0	0	932	512	
15	0	0	0	0	932	512	
0	0	0	0	0	932	510	
1	0	0	0	0	932	510	
2	0	0	0	0	932	511	
3	0	0	0	0	932	511	
4	0	0	0	0	932	511	
5	0	0	0	0	932	512	
6	0	0	0	0	932	513	
7	0	0	0	0	932	515	
8	0	0	0	0	932	515	
9	0	0	0	0	932	515	
10	0	0	0	0	932	515	
11	0	0	0	0	932	518	
12	0	0	0	0	932	519	
13	0	0	0	0	932	518	
14	0	0	0	0	932	518	
15	0	0	0	0	932	519	
0	0	0	0	0	932	519	
1	0	0	0	0	932	518	
2	0	0	0	0	932	519	
3	0	0	0	0	932	515	
4	0	0	0	0	932	519	
5	0	0	0	0	932	534	
6	0	0	0	0	932	529	
7	0	0	0	0	932	531	
8	0	0	0	0	932	519	
9	0	0	0	0	932	516	
10	0	0	0	0	932	519	
11	0	0	0	0	932	518	
12	0	0	0	0	932	519	
13	0	0	0	0	932	519	
14	0	0	0	0	932	519	
15	0	0	0	0	932	519	
0	0	0	0	0	932	484	
1	0	0	0	0	932	451	
2	0	0	0	0	932	611	
3	0	0	0	0	932	768	
4	0	0	0	0	932	416	
5	0	0	0	0	932	423	
6	0	0	0	0	932	465	
7	0	0	0	0	932	527	
8	0	0	0	0	932	521	
9	0	0	0	0	932	522	
10	0	0	0	0	932	527	
11	0	0	0	0	932	528	
12	0	0	0	0	932	531	
13	0	0	0	0	932	531	
14	0	0	0	0	932	534	
15	0	0	0	0	932	535	
0	0	0	0	0	932	536	
1	0	0	0	0	932	536	
2	0	0	0	0	932	537	
3	0	0	0	0	932	540	
4	0	0	0	0	932	540	
5	0	0	0	0	932	543	
6	0	0	0	0	932	547	
7	0	0	0	0	932	551	
8	0	0	0	0	932	560	
9	0	0	0	0	932	568	
10	0	0	0	0	932	574	
11	0	0	0	0	932	572	
12	0	0	0	0	932	556	
13	0	0	0	0	932	540	
14	0	0	0	0	932	529	
15	0	0	0	0	932	521	
0	0	0	0	0	932	518	
1	0	0	0	0	932	518	
2	0	0	0	0	932	515	
3	0	0	0	0	932	515	
4	0	0	0	0	932	513	
5	0	0	0	0	932	513	
6	0	0	0	0	932	512	
7	0	0	0	0	932	513	
8	0	0	0	0	932	513	
9	0	0	0	0	932	515	
10	0	0	0	0	932	515	
11	0	0	0	0	932	515	
12	0	0	0	0	932	515	
13	0	0	0	0	932	517	
14	0	0	0	0	931	519	
15	0	0	0	0	932	519	
0	0	0	0	0	931	519	
1	0	0	0	0	931	521	
2	0	0	0	0	931	523	
3	0	0	0	0	931	524	
4	0	0	0	0	931	524	
5	0	0	0	0	931	524	
6	0	0	0	0	931	523	
7	0	0	0	0	931	523	
8	0	0	0	0	931	521	
9	0	0	0	0	931	519	
10	0	0	0	0	931	534	
11	0	0	0	0	931	536	
12	0	0	0	0	931	533	
13	0	0	0	0	931	529	
14	0	0	0	0	931	520	
15	0	0	0	0	931	524	
0	0	0	0	0	931	521	
1	0	0	0	0	931	523	
2	0	0	0	0	931	523	
3	0	0	0	0	931	523	
4	0	0	0	0	931	523	
5	0	0	0	0	931	513	
6	0	0	0	0	931	461	
7	0	0	0	0	931	511	
8	0	0	0	0	931	748	
9	0	0	0	0	931	563	
10	0	0	0	0	931	379	
11	0	0	0	0	931	454	
12	0	0	0	0	931	496	
13	0	0	0	0	931	540	
14	0	0	0	0	931	524	
15	0	0	0	0	931	532	
0	0	0	0	0	931	535	
1	0	0	0	0	931	536	
2	0	0	0	0	931	539	
3	0	0	0	0	931	540	
4	0	0	0	0	931	540	
5	0	0	0	0	931	541	
6	0	0	0	0	931	540	
7	0	0	0	0	931	540	
8	0	0	0	0	931	542	
9	0	0	0	0	931	543	
10	0	0	0	0	931	546	
11	0	0	0	0	931	550	
12	0	0	0	0	931	556	
13	0	0	0	0	931	563	
14	0	0	0	0	931	571	
15	0	0	0	0	931	575	
0	0	0	0	0	931	575	
1	0	0	0	0	931	566	
2	0	0	0	0	931	545	
3	0	0	0	0	931	531	
4	0	0	0	0	931	521	
5	0	0	0	0	931	515	
6	0	0	0	0	931	512	
7	0	0	0	0	931	510	
8	0	0	0	0	931	510	
9	0	0	0	0	931	510	
10	0	0	0	0	931	510	
11	0	0	0	0	931	511	
12	0	0	0	0	931	511	
13	0	0	0	0	931	512	
14	0	0	0	0	931	512	
15	0	0	0	0	931	513	
0	0	0	0	0	931	513	
1	0	0	0	0	931	515	
2	0	0	0	0	931	516	
3	0	0	0	0	931	519	
4	0	0	0	0	931	519	
5	0	0	0	0	931	519	
6	0	0	0	0	931	519	
7	0	0	0	0	931	519	
8	0	0	0	0	931	519	
9	0	0	0	0	930	519	
10	0	0	0	0	930	521	
11	0	0	0	0	930	521	
12	0	0	0	0	930	518	
13	0	0	0	0	930	526	
14	0	0	0	0	930	536	
15	0	0	0	0	930	531	
0	0	0	0	0	930	530	
1	0	0	0	0	930	521	
2	0	0	0	0	930	519	
3	0	0	0	0	930	519	
4	0	0	0	0	930	519	
5	0	0	0	0	930	519	
6	0	0	0	0	930	519	
7	0	0	0	0	930	520	
8	0	0	0	0	930	519	
9	0	0	0	0	930	486	
10	0	0	0	0	930	463	
11	0	0	0	0	930	622	
12	0	0	0	0	930	710	
13	0	0	0	0	929	391	
14	0	0	0	0	929	424	
15	0	0	0	0	929	451	
0	0	0	0	0	929	519	
1	0	0	0	0	929	527	
2	0	0	0	0	929	524	
3	0	0	0	0	929	531	
4	0	0	0	0	929	531	
5	0	0	0	0	929	536	
6	0	0	0	0	929	536	
7	0	0	0	0	929	539	
8	0	0	0	0	929	540	
9	0	0	0	0	929	540	
10	0	0	0	0	929	539	
11	0	0	0	0	929	540	
12	0	0	0	0	929	540	
13	0	0	0	0	929	542	
14	0	0	0	0	929	543	
15	0	0	0	0	929	549	
0	0	0	0	0	929	553	
1	0	0	0	0	929	560	
2	0	0	0	0	929	568	
3	0	0	0	0	929	572	
4	0	0	0	0	929	566	
5	0	0	0	0	929	548	
6	0	0	0	0	929	531	
7	0	0	0	0	929	520	
8	0	0	0	0	929	513	
9	0	0	0	0	929	512	
10	0	0	0	0	929	511	
11	0	0	0	0	929	510	
12	0	0	0	0	929	508	
13	0	0	0	0	929	508	
14	0	0	0	0	929	508	
15	0	0	0	0	929	507	
0	0	0	0	0	929	508	
1	0	0	0	0	929	508	
2	0	0	0	0	929	509	
3	0	0	0	0	929	508	
4	0	0	0	0	929	510	
5	0	0	0	0	929	511	
6	0	0	0	0	929	512	
7	0	0	0	0	929	512	
8	0	0	0	0	929	511	
9	0	0	0	0	929	511	
10	0	0	0	0	929	512	
11	0	0	0	0	929	512	
12	0	0	0	0	929	512	
13	0	0	0	0	929	512	
14	0	0	0	0	929	513	
15	0	0	0	0	929	512	
0	0	0	0	0	929	512	
1	0	0	0	0	929	508	
2	0	0	0	0	929	519	
3	0	0	0	0	929	527	
4	0	0	0	0	929	524	
5	0	0	0	0	929	523	
6	0	0	0	0	929	512	
7	0	0	0	0	929	512	
8	0	0	0	0	929	513	
9	0	0	0	0	929	512	
10	0	0	0	0	929	513	
11	0	0	0	0	929	513	
12	0	0	0	0	929	514	
13	0	0	0	0	929	511	
14	0	0	0	0	929	463	
15	0	0	0	0	929	463	
0	0	0	0	0	929	675	
1	0	0	0	0	929	679	
2	0	0	0	0	929	382	
3	0	0	0	0	929	438	
4	0	0	0	0	929	478	
5	0	0	0	0	929	527	
6	0	0	0	0	929	516	
7	0	0	0	0	929	519	
8	0	0	0	0	928	523	
9	0	0	0	0	929	524	
10	0	0	0	0	929	526	
11	0	0	0	0	928	527	
12	0	0	0	0	928	529	
13	0	0	0	0	928	531	
14	0	0	0	0	928	532	
15	0	0	0	0	928	534	
0	0	0	0	0	928	535	
1	0	0	0	0	928	535	
2	0	0	0	0	928	534	
3	0	0	0	0	928	537	
4	0	0	0	0	928	542	
5	0	0	0	0	928	547	
6	0	0	0	0	928	556	
7	0	0	0	0	928	564	
8	0	0	0	0	928	568	
9	0	0	0	0	928	561	
10	0	0	0	0	928	547	
11	0	0	0	0	928	531	
12	0	0	0	0	928	519	
13	0	0	0	0	928	514	
14	0	0	0	0	928	511	
15	0	0	0	0	928	510	
0	0	0	0	0	928	508	
1	0	0	0	0	928	508	
2	0	0	0	0	928	508	
3	0	0	0	0	928	507	
4	0	0	0	0	928	504	
5	0	0	0	0	928	504	
6	0	0	0	0	928	504	
7	0	0	0	0	928	505	
8	0	0	0	0	928	507	
9	0	0	0	0	928	508	
10	0	0	0	0	928	510	
11	0	0	0	0	928	511	
12	0	0	0	0	928	512	
13	0	0	0	0	928	512	
14	0	0	0	0	928	512	
15	0	0	0	0	928	512	
0	0	0	0	0	928	512	
1	0	0	0	0	927	513	
2	0	0	0	0	928	513	
3	0	0	0	0	927	512	
4	0	0	0	0	927	512	
5	0	0	0	0	927	512	
6	0	0	0	0	927	512	
7	0	0	0	0	927	508	
8	0	0	0	0	927	521	
9	0	0	0	0	927	527	
10	0	0	0	0	927	523	
11	0	0	0	0	927	521	
12	0	0	0	0	927	511	
13	0	0	0	0	927	511	
14	0	0	0	0	927	512	
15	0	0	0	0	927	511	
0	0	0	0	0	927	512	
1	0	0	0	0	927	513	
2	0	0	0	0	927	512	
3	0	0	0	0	927	508	
4	0	0	0	0	927	457	
5	0	0	0	0	927	467	
6	0	0	0	0	927	699	
7	0	0	0	0	927	656	
8	0	0	0	0	927	375	
9	0	0	0	0	927	438	
10	0	0	0	0	927	480	
11	0	0	0	0	927	526	
12	0	0	0	0	927	512	
13	0	0	0	0	927	518	
14	0	0	0	0	927	521	
15	0	0	0	0	927	524	
0	0	0	0	0	927	524	
1	0	0	0	0	927	527	
2	0	0	0	0	927	527	
3	0	0	0	0	927	529	
4	0	0	0	0	927	531	
5	0	0	0	0	927	531	
6	0	0	0	0	927	534	
7	0	0	0	0	927	536	
8	0	0	0	0	927	536	
9	0	0	0	0	927	539	
10	0	0	0	0	927	543	
11	0	0	0	0	927	548	
12	0	0	0	0	927	558	
13	0	0	0	0	927	563	
14	0	0	0	0	927	568	
15	0	0	0	0	927	560	
0	0	0	0	0	927	543	
1	0	0	0	0	927	531	
2	0	0	0	0	927	521	
3	0	0	0	0	927	515	
4	0	0	0	0	927	511	
5	0	0	0	0	927	510	
6	0	0	0	0	927	510	
7	0	0	0	0	927	510	
8	0	0	0	0	927	510	
9	0	0	0	0	927	509	
10	0	0	0	0	927	508	
11	0	0	0	0	927	508	
12	0	0	0	0	927	510	
13	0	0	0	0	927	510	
14	0	0	0	0	927	511	
15	0	0	0	0	927	512	
0	0	0	0	0	927	512	
1	0	0	0	0	927	513	
2	0	0	0	0	927	515	
3	0	0	0	0	927	515	
4	0	0	0	0	927	517	
5	0	0	0	0	927	518	
6	0	0	0	0	927	518	
7	0	0	0	0	927	519	
8	0	0	0	0	927	519	
9	0	0	0	0	927	519	
10	0	0	0	0	927	519	
11	0	0	0	0	927	519	
12	0	0	0	0	927	519	
13	0	0	0	0	927	513	
14	0	0	0	0	927	519	
15	0	0	0	0	927	531	
0	0	0	0	0	927	526	
1	0	0	0	0	927	524	
2	0	0	0	0	927	515	
3	0	0	0	0	927	515	
4	0	0	0	0	927	515	
5	0	0	0	0	927	515	
6	0	0	0	0	927	515	
7	0	0	0	0	927	516	
8	0	0	0	0	927	516	
9	0	0	0	0	927	515	
10	0	0	0	0	927	480	
11	0	0	0	0	927	460	
12	0	0	0	0	927	624	
13	0	0	0	0	927	723	
14	0	0	0	0	927	384	
15	0	0	0	0	927	423	
0	0	0	0	0	927	459	
1	0	0	0	0	927	523	
2	0	0	0	0	927	521	
3	0	0	0	0	927	519	
4	0	0	0	0	927	526	
5	0	0	0	0	927	527	
6	0	0	0	0	927	529	
7	0	0	0	0	928	531	
8	0	0	0	0	928	534	
9	0	0	0	0	928	535	
10	0	0	0	0	928	536	
11	0	0	0	0	928	536	
12	0	0	0	0	928	539	
13	0	0	0	0	928	542	
14	0	0	0	0	929	543	
15	0	0	0	0	929	544	
0	0	0	0	0	929	550	
1	0	0	0	0	929	556	
2	0	0	0	0	929	563	
3	0	0	0	0	929	571	
4	0	0	0	0	929	575	
5	0	0	0	0	929	569	
6	0	0	0	0	929	551	
7	0	0	0	0	929	535	
8	0	0	0	0	929	524	
9	0	0	0	0	929	515	
10	0	0	0	0	929	512	
11	0	0	0	0	929	511	
12	0	0	0	0	929	510	
13	0	0	0	0	929	508	
14	0	0	0	0	929	508	
15	0	0	0	0	929	508	
0	0	0	0	0	929	507	
1	0	0	0	0	929	507	
2	0	0	0	0	929	507	
3	0	0	0	0	929	508	
4	0	0	0	0	929	510	
5	0	0	0	0	929	511	
6	0	0	0	0	929	511	
7	0	0	0	0	929	511	
8	0	0	0	0	929	512	
9	0	0	0	0	930	515	
10	0	0	0	0	930	513	
11	0	0	0	0	930	513	
12	0	0	0	0	930	515	
13	0	0	0	0	930	515	
14	0	0	0	0	930	513	
15	0	0	0	0	930	515	
0	0	0	0	0	930	512	
1	0	0	0	0	930	513	
2	0	0	0	0	930	527	
3	0	0	0	0	930	524	
4	0	0	0	0	930	519	
5	0	0	0	0	931	513	
6	0	0	0	0	931	515	
7	0	0	0	0	931	516	
8	0	0	0	0	931	513	
9	0	0	0	0	931	514	
10	0	0	0	0	931	514	
11	0	0	0	0	931	515	
12	0	0	0	0	931	515	
13	0	0	0	0	931	499	
14	0	0	0	0	931	451	
15	0	0	0	0	931	536	
0	0	0	0	0	931	751	
1	0	0	0	0	931	480	
2	0	0	0	0	931	388	
3	0	0	0	0	931	446	
4	0	0	0	0	931	496	
5	0	0	0	0	931	531	
6	0	0	0	0	931	519	
7	0	0	0	0	931	527	
8	0	0	0	0	931	529	
9	0	0	0	0	931	531	
10	0	0	0	0	931	536	
11	0	0	0	0	931	536	
12	0	0	0	0	931	537	
13	0	0	0	0	931	540	
14	0	0	0	0	931	540	
15	0	0	0	0	931	540	
0	0	0	0	0	931	542	
1	0	0	0	0	931	543	
2	0	0	0	0	931	545	
3	0	0	0	0	931	550	
4	0	0	0	0	931	556	
5	0	0	0	0	931	563	
6	0	0	0	0	931	569	
7	0	0	0	0	931	575	
8	0	0	0	0	931	574	
9	0	0	0	0	931	558	
10	0	0	0	0	931	541	
11	0	0	0	0	931	528	
12	0	0	0	0	931	519	
13	0	0	0	0	931	516	
14	0	0	0	0	931	515	
15	0	0	0	0	931	514	
0	0	0	0	0	931	515	
1	0	0	0	0	931	513	
2	0	0	0	0	931	513	
3	0	0	0	0	931	513	
4	0	0	0	0	931	513	
5	0	0	0	0	931	513	
6	0	0	0	0	931	515	
7	0	0	0	0	931	515	
8	0	0	0	0	931	515	
9	0	0	0	0	931	515	
10	0	0	0	0	931	518	
11	0	0	0	0	931	516	
12	0	0	0	0	931	519	
13	0	0	0	0	931	519	
14	0	0	0	0	931	519	
15	0	0	0	0	931	518	
0	0	0	0	0	931	519	
1	0	0	0	0	931	519	
2	0	0	0	0	931	518	
3	0	0	0	0	931	517	
4	0	0	0	0	931	516	
5	0	0	0	0	931	515	
6	0	0	0	0	931	524	
7	0	0	0	0	931	531	
8	0	0	0	0	931	526	
9	0	0	0	0	931	526	
10	0	0	0	0	931	516	
11	0	0	0	0	931	515	
12	0	0	0	0	931	515	
13	0	0	0	0	931	515	
14	0	0	0	0	931	518	
15	0	0	0	0	930	518	
0	0	0	0	0	931	518	
1	0	0	0	0	930	515	
2	0	0	0	0	930	467	
3	0	0	0	0	930	467	
4	0	0	0	0	930	679	
5	0	0	0	0	930	683	
6	0	0	0	0	930	379	
7	0	0	0	0	930	436	
8	0	0	0	0	930	478	
9	0	0	0	0	930	527	
10	0	0	0	0	930	514	
11	0	0	0	0	930	519	
12	0	0	0	0	930	523	
13	0	0	0	0	930	525	
14	0	0	0	0	930	527	
15	0	0	0	0	930	527	
0	0	0	0	0	930	528	
1	0	0	0	0	930	529	
2	0	0	0	0	930	531	
3	0	0	0	0	930	534	
4	0	0	0	0	930	536	
5	0	0	0	0	929	536	
6	0	0	0	0	929	540	
7	0	0	0	0	929	542	
8	0	0	0	0	929	547	
9	0	0	0	0	929	555	
10	0	0	0	0	929	561	
11	0	0	0	0	929	568	
12	0	0	0	0	929	575	
13	0	0	0	0	929	568	
14	0	0	0	0	929	551	
15	0	0	0	0	929	536	
0	0	0	0	0	929	526	
1	0	0	0	0	929	519	
2	0	0	0	0	929	516	
3	0	0	0	0	929	515	
4	0	0	0	0	929	517	
5	0	0	0	0	929	516	
6	0	0	0	0	929	515	
7	0	0	0	0	929	513	
8	0	0	0	0	929	512	
9	0	0	0	0	929	513	
10	0	0	0	0	929	514	
11	0	0	0	0	929	513	
12	0	0	0	0	929	513	
13	0	0	0	0	929	515	
14	0	0	0	0	929	516	
15	0	0	0	0	929	518	
0	0	0	0	0	929	519	
1	0	0	0	0	929	519	
2	0	0	0	0	929	519	
3	0	0	0	0	929	519	
4	0	0	0	0	929	519	
5	0	0	0	0	929	519	
6	0	0	0	0	929	518	
7	0	0	0	0	929	518	
8	0	0	0	0	929	516	
9	0	0	0	0	929	516	
10	0	0	0	0	929	515	
11	0	0	0	0	929	521	
12	0	0	0	0	929	531	
13	0	0	0	0	929	526	
14	0	0	0	0	929	526	
15	0	0	0	0	929	518	
0	0	0	0	0	929	514	
1	0	0	0	0	929	514	
2	0	0	0	0	929	512	
3	0	0	0	0	929	514	
4	0	0	0	0	929	514	
5	0	0	0	0	929	513	
6	0	0	0	0	929	513	
7	0	0	0	0	929	479	
8	0	0	0	0	929	444	
9	0	0	0	0	929	608	
10	0	0	0	0	929	766	
11	0	0	0	0	929	408	
12	0	0	0	0	929	417	
13	0	0	0	0	929	463	
14	0	0	0	0	929	524	
15	0	0	0	0	929	518	
0	0	0	0	0	928	518	
1	0	0	0	0	928	524	
2	0	0	0	0	928	524	
3	0	0	0	0	928	527	
4	0	0	0	0	928	527	
5	0	0	0	0	928	527	
6	0	0	0	0	928	527	
7	0	0	0	0	928	529	
8	0	0	0	0	928	531	
9	0	0	0	0	928	531	
10	0	0	0	0	928	533	
11	0	0	0	0	928	532	
12	0	0	0	0	928	536	
13	0	0	0	0	928	540	
14	0	0	0	0	928	545	
15	0	0	0	0	928	553	
0	0	0	0	0	928	561	
1	0	0	0	0	928	568	
2	0	0	0	0	928	563	
3	0	0	0	0	928	550	
4	0	0	0	0	927	535	
5	0	0	0	0	927	524	
6	0	0	0	0	927	515	
7	0	0	0	0	927	512	
8	0	0	0	0	927	511	
9	0	0	0	0	927	511	
10	0	0	0	0	927	511	
11	0	0	0	0	927	508	
12	0	0	0	0	927	508	
13	0	0	0	0	927	508	
14	0	0	0	0	927	508	
15	0	0	0	0	927	508	
0	0	0	0	0	927	510	
1	0	0	0	0	927	510	
2	0	0	0	0	927	511	
3	0	0	0	0	927	512	
4	0	0	0	0	927	513	
5	0	0	0	0	927	514	
6	0	0	0	0	927	512	
7	0	0	0	0	927	515	
8	0	0	0	0	927	515	
9	0	0	0	0	927	515	
10	0	0	0	0	927	515	
11	0	0	0	0	927	515	
12	0	0	0	0	927	515	
13	0	0	0	0	927	515	
14	0	0	0	0	927	515	
15	0	0	0	0	927	513	
0	0	0	0	0	927	512	
1	0	0	0	0	927	526	
2	0	0	0	0	927	529	
3	0	0	0	0	927	527	
4	0	0	0	0	927	524	
5	0	0	0	0	927	513	
6	0	0	0	0	927	515	
7	0	0	0	0	927	514	
8	0	0	0	0	927	513	
9	0	0	0	0	927	514	
10	0	0	0	0	927	513	
11	0	0	0	0	927	515	
12	0	0	0	0	927	511	
13	0	0	0	0	927	457	
14	0	0	0	0	927	475	
15	0	0	0	0	927	711	
0	0	0	0	0	927	647	
1	0	0	0	0	927	368	
2	0	0	0	0	927	439	
3	0	0	0	0	927	480	
4	0	0	0	0	927	528	
5	0	0	0	0	927	513	
6	0	0	0	0	927	519	
7	0	0	0	0	927	523	
8	0	0	0	0	927	524	
9	0	0	0	0	927	526	
10	0	0	0	0	927	527	
11	0	0	0	0	927	528	
12	0	0	0	0	927	531	
13	0	0	0	0	927	532	
14	0	0	0	0	927	532	
15	0	0	0	0	927	532	
0	0	0	0	0	927	531	
1	0	0	0	0	927	534	
2	0	0	0	0	927	537	
3	0	0	0	0	927	543	
4	0	0	0	0	927	549	
5	0	0	0	0	927	558	
6	0	0	0	0	927	564	
7	0	0	0	0	927	568	
8	0	0	0	0	927	558	
9	0	0	0	0	927	542	
10	0	0	0	0	927	527	
11	0	0	0	0	927	518	
12	0	0	0	0	927	512	
13	0	0	0	0	927	510	
14	0	0	0	0	927	508	
15	0	0	0	0	927	509	
0	0	0	0	0	927	508	
1	0	0	0	0	927	508	
2	0	0	0	0	927	508	
3	0	0	0	0	927	508	
4	0	0	0	0	927	508	
5	0	0	0	0	927	508	
6	0	0	0	0	927	511	
7	0	0	0	0	927	511	
8	0	0	0	0	927	512	
9	0	0	0	0	927	515	
10	0	0	0	0	927	516	
11	0	0	0	0	927	517	
12	0	0	0	0	927	518	
13	0	0	0	0	927	519	
14	0	0	0	0	927	519	
15	0	0	0	0	927	519	
0	0	0	0	0	927	519	
1	0	0	0	0	927	519	
2	0	0	0	0	927	519	
3	0	0	0	0	927	519	
4	0	0	0	0	927	519	
5	0	0	0	0	927	516	
6	0	0	0	0	927	527	
7	0	0	0	0	927	534	
8	0	0	0	0	927	529	
9	0	0	0	0	927	527	
10	0	0	0	0	927	518	
11	0	0	0	0	927	519	
12	0	0	0	0	927	519	
13	0	0	0	0	927	519	
14	0	0	0	0	927	519	
15	0	0	0	0	927	519	
0	0	0	0	0	927	519	
1	0	0	0	0	927	515	
2	0	0	0	0	927	470	
3	0	0	0	0	927	489	
4	0	0	0	0	927	691	
5	0	0	0	0	927	608	
6	0	0	0	0	927	359	
7	0	0	0	0	927	439	
8	0	0	0	0	927	463	
9	0	0	0	0	927	528	
10	0	0	0	0	927	521	
11	0	0	0	0	927	524	
12	0	0	0	0	927	529	
13	0	0	0	0	927	531	
14	0	0	0	0	927	534	
15	0	0	0	0	928	536	
0	0	0	0	0	928	537	
1	0	0	0	0	928	540	
2	0	0	0	0	929	540	
3	0	0	0	0	929	543	
4	0	0	0	0	929	547	
5	0	0	0	0	929	550	
6	0	0	0	0	929	551	
7	0	0	0	0	929	555	
8	0	0	0	0	929	560	
9	0	0	0	0	929	567	
10	0	0	0	0	930	572	
11	0	0	0	0	930	579	
12	0	0	0	0	931	580	
13	0	0	0	0	931	568	
14	0	0	0	0	931	550	
15	0	0	0	0	931	534	
0	0	0	0	0	931	523	
1	0	0	0	0	931	516	
2	0	0	0	0	931	512	
3	0	0	0	0	931	511	
4	0	0	0	0	931	511	
5	0	0	0	0	931	510	
6	0	0	0	0	931	510	
7	0	0	0	0	932	508	
8	0	0	0	0	932	508	
9	0	0	0	0	932	510	
10	0	0	0	0	932	511	
11	0	0	0	0	932	513	
12	0	0	0	0	933	513	
13	0	0	0	0	934	515	
14	0	0	0	0	934	517	
15	0	0	0	0	934	515	
0	0	0	0	0	934	515	
1	0	0	0	0	934	517	
2	0	0	0	0	934	515	
3	0	0	0	0	934	513	
4	0	0	0	0	935	513	
5	0	0	0	0	935	513	
6	0	0	0	0	935	513	
7	0	0	0	0	935	512	
8	0	0	0	0	935	511	
9	0	0	0	0	935	512	
10	0	0	0	0	935	526	
11	0	0	0	0	935	524	
12	0	0	0	0	935	523	
13	0	0	0	0	935	515	
14	0	0	0	0	935	511	
15	0	0	0	0	935	513	
0	0	0	0	0	935	512	
1	0	0	0	0	935	513	
2	0	0	0	0	935	513	
3	0	0	0	0	935	515	
4	0	0	0	0	935	515	
5	0	0	0	0	935	487	
6	0	0	0	0	935	450	
7	0	0	0	0	935	583	
8	0	0	0	0	936	759	
9	0	0	0	0	936	428	
10	0	0	0	0	936	415	
11	0	0	0	0	936	459	
12	0	0	0	0	936	519	
13	0	0	0	0	936	524	
14	0	0	0	0	936	519	
15	0	0	0	0	936	525	
0	0	0	0	0	936	527	
1	0	0	0	0	936	527	
2	0	0	0	0	936	530	
3	0	0	0	0	936	531	
4	0	0	0	0	936	532	
5	0	0	0	0	936	534	
6	0	0	0	0	936	536	
7	0	0	0	0	936	536	
8	0	0	0	0	936	536	
9	0	0	0	0	937	539	
10	0	0	0	0	937	540	
11	0	0	0	0	937	543	
12	0	0	0	0	937	548	
13	0	0	0	0	937	553	
14	0	0	0	0	937	561	
15	0	0	0	0	937	568	
0	0	0	0	0	937	561	
1	0	0	0	0	937	545	
2	0	0	0	0	937	529	
3	0	0	0	0	937	518	
4	0	0	0	0	937	508	
5	0	0	0	0	937	504	
6	0	0	0	0	937	503	
7	0	0	0	0	937	504	
8	0	0	0	0	937	503	
9	0	0	0	0	937	502	
10	0	0	0	0	937	504	
11	0	0	0	0	937	504	
12	0	0	0	0	936	504	
13	0	0	0	0	936	505	
14	0	0	0	0	936	507	
15	0	0	0	0	936	508	
0	0	0	0	0	936	508	
1	0	0	0	0	936	510	
2	0	0	0	0	936	511	
3	0	0	0	0	936	511	
4	0	0	0	0	936	511	
5	0	0	0	0	936	512	
6	0	0	0	0	936	513	
7	0	0	0	0	936	513	
8	0	0	0	0	936	513	
9	0	0	0	0	936	513	
10	0	0	0	0	936	514	
11	0	0	0	0	936	512	
12	0	0	0	0	936	511	
13	0	0	0	0	936	525	
14	0	0	0	0	936	529	
15	0	0	0	0	936	526	
0	0	0	0	0	936	523	
1	0	0	0	0	936	513	
2	0	0	0	0	936	516	
3	0	0	0	0	935	515	
4	0	0	0	0	935	516	
5	0	0	0	0	935	519	
6	0	0	0	0	935	519	
7	0	0	0	0	935	519	
8	0	0	0	0	935	511	
9	0	0	0	0	935	460	
10	0	0	0	0	935	503	
11	0	0	0	0	935	751	
12	0	0	0	0	935	598	
13	0	0	0	0	935	391	
14	0	0	0	0	935	455	
15	0	0	0	0	935	504	
0	0	0	0	0	935	536	
1	0	0	0	0	935	523	
2	0	0	0	0	935	529	
3	0	0	0	0	935	529	
4	0	0	0	0	935	531	
5	0	0	0	0	935	534	
6	0	0	0	0	935	534	
7	0	0	0	0	935	536	
8	0	0	0	0	935	536	
9	0	0	0	0	935	535	
10	0	0	0	0	935	536	
11	0	0	0	0	935	535	
12	0	0	0	0	935	535	
13	0	0	0	0	935	536	
14	0	0	0	0	935	539	
15	0	0	0	0	935	543	
0	0	0	0	0	935	550	
1	0	0	0	0	935	557	
2	0	0	0	0	935	563	
3	0	0	0	0	935	564	
4	0	0	0	0	935	552	
5	0	0	0	0	935	537	
6	0	0	0	0	935	526	
7	0	0	0	0	935	515	
8	0	0	0	0	935	508	
9	0	0	0	0	935	505	
10	0	0	0	0	935	507	
11	0	0	0	0	935	508	
12	0	0	0	0	935	510	
13	0	0	0	0	935	509	
14	0	0	0	0	935	510	
15	0	0	0	0	935	511	
0	0	0	0	0	935	511	
1	0	0	0	0	935	513	
2	0	0	0	0	935	515	
3	0	0	0	0	935	516	
4	0	0	0	0	935	518	
5	0	0	0	0	935	519	
6	0	0	0	0	935	519	
7	0	0	0	0	935	519	
8	0	0	0	0	935	520	
9	0	0	0	0	935	521	
10	0	0	0	0	935	522	
11	0	0	0	0	935	521	
12	0	0	0	0	935	521	
13	0	0	0	0	935	521	
14	0	0	0	0	935	521	
15	0	0	0	0	935	520	
0	0	0	0	0	935	519	
1	0	0	0	0	935	527	
2	0	0	0	0	935	536	
3	0	0	0	0	935	531	
4	0	0	0	0	935	529	
5	0	0	0	0	935	521	
6	0	0	0	0	935	519	
7	0	0	0	0	936	521	
8	0	0	0	0	936	519	
9	0	0	0	0	936	520	
10	0	0	0	0	936	523	
11	0	0	0	0	936	523	
12	0	0	0	0	936	521	
13	0	0	0	0	936	481	
14	0	0	0	0	937	462	
15	0	0	0	0	937	652	
0	0	0	0	0	937	739	
1	0	0	0	0	937	399	
2	0	0	0	0	937	440	
3	0	0	0	0	937	480	
4	0	0	0	0	937	534	
5	0	0	0	0	937	524	
6	0	0	0	0	937	525	
7	0	0	0	0	937	529	
8	0	0	0	0	937	529	
9	0	0	0	0	937	531	
10	0	0	0	0	937	531	
11	0	0	0	0	937	531	
12	0	0	0	0	937	531	
13	0	0	0	0	937	531	
14	0	0	0	0	937	534	
15	0	0	0	0	938	536	
0	0	0	0	0	938	536	
1	0	0	0	0	938	536	
2	0	0	0	0	938	539	
3	0	0	0	0	939	543	
4	0	0	0	0	939	547	
5	0	0	0	0	939	556	
6	0	0	0	0	939	563	
7	0	0	0	0	939	568	
8	0	0	0	0	939	563	
9	0	0	0	0	939	547	
10	0	0	0	0	939	534	
11	0	0	0	0	939	523	
12	0	0	0	0	939	516	
13	0	0	0	0	939	514	
14	0	0	0	0	939	512	
15	0	0	0	0	939	511	
0	0	0	0	0	939	510	
1	0	0	0	0	939	508	
2	0	0	0	0	939	509	
3	0	0	0	0	939	508	
4	0	0	0	0	939	508	
5	0	0	0	0	939	508	
6	0	0	0	0	939	510	
7	0	0	0	0	939	508	
8	0	0	0	0	939	511	
9	0	0	0	0	939	511	
10	0	0	0	0	939	512	
11	0	0	0	0	939	515	
12	0	0	0	0	939	515	
13	0	0	0	0	939	515	
14	0	0	0	0	939	516	
15	0	0	0	0	939	515	
0	0	0	0	0	939	515	
1	0	0	0	0	939	515	
2	0	0	0	0	939	515	
3	0	0	0	0	939	512	
4	0	0	0	0	939	510	
5	0	0	0	0	939	516	
6	0	0	0	0	939	528	
7	0	0	0	0	939	525	
8	0	0	0	0	939	524	
9	0	0	0	0	939	516	
10	0	0	0	0	939	515	
11	0	0	0	0	939	515	
12	0	0	0	0	939	515	
13	0	0	0	0	938	515	
14	0	0	0	0	939	515	
15	0	0	0	0	938	516	
0	0	0	0	0	938	517	
1	0	0	0	0	938	487	
2	0	0	0	0	938	455	
3	0	0	0	0	938	603	
4	0	0	0	0	938	746	
5	0	0	0	0	938	406	
6	0	0	0	0	938	422	
7	0	0	0	0	937	462	
8	0	0	0	0	937	523	
9	0	0	0	0	937	524	
10	0	0	0	0	937	521	
11	0	0	0	0	937	529	
12	0	0	0	0	937	531	
13	0	0	0	0	937	531	
14	0	0	0	0	937	536	
15	0	0	0	0	937	543	
0	0	0	0	0	937	547	
1	0	0	0	0	937	547	
2	0	0	0	0	937	550	
3	0	0	0	0	937	550	
4	0	0	0	0	937	552	
5	0	0	0	0	937	555	
6	0	0	0	0	937	556	
7	0	0	0	0	937	561	
8	0	0	0	0	937	568	
9	0	0	0	0	937	574	
10	0	0	0	0	937	583	
11	0	0	0	0	937	587	
12	0	0	0	0	937	580	
13	0	0	0	0	937	563	
14	0	0	0	0	937	547	
15	0	0	0	0	937	536	
0	0	0	0	0	937	527	
1	0	0	0	0	937	524	
2	0	0	0	0	937	524	
3	0	0	0	0	936	524	
4	0	0	0	0	936	521	
5	0	0	0	0	936	521	
6	0	0	0	0	936	519	
7	0	0	0	0	936	519	
8	0	0	0	0	936	521	
9	0	0	0	0	936	519	
10	0	0	0	0	936	519	
11	0	0	0	0	936	521	
12	0	0	0	0	936	521	
13	0	0	0	0	936	524	
14	0	0	0	0	936	523	
15	0	0	0	0	936	519	
0	0	0	0	0	935	519	
1	0	0	0	0	935	523	
2	0	0	0	0	935	519	
3	0	0	0	0	935	515	
4	0	0	0	0	935	515	
5	0	0	0	0	935	512	
6	0	0	0	0	935	513	
7	0	0	0	0	935	527	
8	0	0	0	0	935	527	
9	0	0	0	0	935	526	
10	0	0	0	0	935	519	
11	0	0	0	0	935	510	
12	0	0	0	0	935	510	
13	0	0	0	0	935	507	
14	0	0	0	0	935	505	
15	0	0	0	0	935	508	
0	0	0	0	0	935	508	
1	0	0	0	0	935	508	
2	0	0	0	0	935	492	
3	0	0	0	0	935	438	
4	0	0	0	0	935	513	
5	0	0	0	0	935	735	
6	0	0	0	0	935	486	
7	0	0	0	0	935	380	
8	0	0	0	0	935	435	
9	0	0	0	0	935	482	
10	0	0	0	0	935	516	
11	0	0	0	0	935	504	
12	0	0	0	0	935	510	
13	0	0	0	0	935	513	
14	0	0	0	0	935	513	
15	0	0	0	0	935	512	
0	0	0	0	0	935	513	
1	0	0	0	0	934	513	
2	0	0	0	0	934	513	
3	0	0	0	0	934	515	
4	0	0	0	0	934	515	
5	0	0	0	0	934	516	
6	0	0	0	0	934	518	
7	0	0	0	0	934	519	
8	0	0	0	0	934	523	
9	0	0	0	0	934	527	
10	0	0	0	0	934	536	
11	0	0	0	0	934	542	
12	0	0	0	0	934	547	
13	0	0	0	0	934	543	
14	0	0	0	0	934	527	
15	0	0	0	0	934	510	
0	0	0	0	0	934	499	
1	0	0	0	0	934	494	
2	0	0	0	0	933	488	
3	0	0	0	0	933	489	
4	0	0	0	0	933	489	
5	0	0	0	0	932	487	
6	0	0	0	0	932	488	
7	0	0	0	0	932	487	
8	0	0	0	0	932	487	
9	0	0	0	0	932	489	
10	0	0	0	0	932	491	
11	0	0	0	0	932	492	
12	0	0	0	0	932	492	
13	0	0	0	0	932	494	
14	0	0	0	0	932	496	
15	0	0	0	0	932	495	
0	0	0	0	0	932	497	
1	0	0	0	0	932	499	
2	0	0	0	0	932	496	
3	0	0	0	0	932	496	
4	0	0	0	0	932	496	
5	0	0	0	0	932	496	
6	0	0	0	0	931	494	
7	0	0	0	0	931	489	
8	0	0	0	0	931	491	
9	0	0	0	0	931	505	
10	0	0	0	0	931	505	
11	0	0	0	0	931	502	
12	0	0	0	0	931	499	
13	0	0	0	0	931	492	
14	0	0	0	0	931	495	
15	0	0	0	0	931	497	
0	0	0	0	0	931	500	
1	0	0	0	0	931	497	
2	0	0	0	0	931	492	
3	0	0	0	0	931	492	
4	0	0	0	0	931	472	
5	0	0	0	0	931	409	
6	0	0	0	0	931	460	
7	0	0	0	0	931	734	
8	0	0	0	0	931	572	
9	0	0	0	0	931	387	
10	0	0	0	0	931	443	
11	0	0	0	0	931	498	
12	0	0	0	0	931	547	
13	0	0	0	0	931	526	
14	0	0	0	0	931	542	
15	0	0	0	0	931	547	
0	0	0	0	0	931	545	
1	0	0	0	0	931	543	
2	0	0	0	0	931	543	
3	0	0	0	0	931	547	
4	0	0	0	0	931	548	
5	0	0	0	0	931	552	
6	0	0	0	0	931	555	
7	0	0	0	0	931	555	
8	0	0	0	0	931	560	
9	0	0	0	0	931	563	
10	0	0	0	0	931	566	
11	0	0	0	0	931	570	
12	0	0	0	0	931	568	
13	0	0	0	0	931	572	
14	0	0	0	0	931	588	
15	0	0	0	0	931	587	
0	0	0	0	0	931	572	
1	0	0	0	0	930	556	
2	0	0	0	0	930	543	
3	0	0	0	0	930	536	
4	0	0	0	0	930	527	
5	0	0	0	0	930	524	
6	0	0	0	0	930	523	
7	0	0	0	0	930	519	
8	0	0	0	0	930	513	
9	0	0	0	0	930	510	
10	0	0	0	0	930	504	
11	0	0	0	0	929	500	
12	0	0	0	0	929	499	
13	0	0	0	0	929	499	
14	0	0	0	0	929	499	
15	0	0	0	0	929	496	
0	0	0	0	0	929	496	
1	0	0	0	0	929	502	
2	0	0	0	0	929	504	
3	0	0	0	0	929	508	
4	0	0	0	0	929	510	
5	0	0	0	0	929	511	
6	0	0	0	0	929	516	
7	0	0	0	0	929	519	
8	0	0	0	0	929	521	
9	0	0	0	0	929	521	
10	0	0	0	0	929	527	
11	0	0	0	0	929	543	
12	0	0	0	0	929	540	
13	0	0	0	0	929	536	
14	0	0	0	0	929	527	
15	0	0	0	0	929	526	
0	0	0	0	0	929	531	
1	0	0	0	0	929	530	
2	0	0	0	0	929	527	
3	0	0	0	0	929	526	
4	0	0	0	0	929	528	
5	0	0	0	0	929	529	
6	0	0	0	0	929	499	
7	0	0	0	0	929	448	
8	0	0	0	0	929	568	
9	0	0	0	0	929	790	
10	0	0	0	0	929	472	
11	0	0	0	0	929	414	
12	0	0	0	0	929	444	
13	0	0	0	0	929	505	
14	0	0	0	0	929	539	
15	0	0	0	0	929	521	
0	0	0	0	0	929	529	
1	0	0	0	0	929	536	
2	0	0	0	0	929	542	
3	0	0	0	0	929	543	
4	0	0	0	0	929	548	
5	0	0	0	0	929	548	
6	0	0	0	0	929	547	
7	0	0	0	0	929	547	
8	0	0	0	0	929	549	
9	0	0	0	0	929	547	
10	0	0	0	0	929	547	
11	0	0	0	0	929	556	
12	0	0	0	0	929	560	
13	0	0	0	0	929	561	
14	0	0	0	0	929	574	
15	0	0	0	0	929	583	
0	0	0	0	0	929	582	
1	0	0	0	0	929	569	
2	0	0	0	0	929	551	
3	0	0	0	0	929	532	
4	0	0	0	0	929	519	
5	0	0	0	0	929	508	
6	0	0	0	0	929	502	
7	0	0	0	0	929	496	
8	0	0	0	0	929	492	
9	0	0	0	0	929	494	
10	0	0	0	0	929	494	
11	0	0	0	0	929	487	
12	0	0	0	0	929	484	
13	0	0	0	0	929	483	
14	0	0	0	0	929	483	
15	0	0	0	0	929	489	
0	0	0	0	0	929	492	
1	0	0	0	0	929	499	
2	0	0	0	0	929	504	
3	0	0	0	0	929	508	
4	0	0	0	0	929	511	
5	0	0	0	0	929	515	
6	0	0	0	0	929	519	
7	0	0	0	0	929	513	
8	0	0	0	0	929	511	
9	0	0	0	0	929	512	
10	0	0	0	0	929	532	
11	0	0	0	0	929	543	
12	0	0	0	0	929	537	
13	0	0	0	0	929	532	
14	0	0	0	0	929	531	
15	0	0	0	0	929	536	
0	0	0	0	0	929	536	
1	0	0	0	0	929	539	
2	0	0	0	0	929	542	
3	0	0	0	0	929	550	
4	0	0	0	0	929	568	
5	0	0	0	0	929	569	
6	0	0	0	0	929	496	
7	0	0	0	0	929	521	
8	0	0	0	0	929	773	
9	0	0	0	0	929	691	
10	0	0	0	0	929	457	
11	0	0	0	0	929	502	
12	0	0	0	0	929	527	
13	0	0	0	0	929	607	
14	0	0	0	0	929	609	
15	0	0	0	0	929	623	
0	0	0	0	0	929	638	
1	0	0	0	0	929	652	
2	0	0	0	0	929	655	
3	0	0	0	0	929	660	
4	0	0	0	0	929	666	
5	0	0	0	0	929	668	
6	0	0	0	0	929	681	
7	0	0	0	0	929	694	
8	0	0	0	0	929	723	
9	0	0	0	0	929	729	
10	0	0	0	0	929	729	
11	0	0	0	0	929	740	
12	0	0	0	0	930	755	
13	0	0	0	0	930	771	
14	0	0	0	0	930	791	
15	0	0	0	0	930	803	
0	0	0	0	0	930	801	
1	0	0	0	0	930	788	
2	0	0	0	0	930	780	
3	0	0	0	0	930	771	
4	0	0	0	0	930	769	
5	0	0	0	0	930	771	
6	0	0	0	0	930	766	
7	0	0	0	0	931	752	
8	0	0	0	0	931	753	
9	0	0	0	0	931	756	
10	0	0	0	0	931	771	
11	0	0	0	0	931	775	
12	0	0	0	0	931	775	
13	0	0	0	0	931	771	
14	0	0	0	0	931	768	
15	0	0	0	0	931	760	
0	0	0	0	0	931	755	
1	0	0	0	0	931	774	
2	0	0	0	0	931	798	
3	0	0	0	0	931	811	
4	0	0	0	0	931	831	
5	0	0	0	0	931	827	
6	0	0	0	0	931	796	
7	0	0	0	0	931	774	
8	0	0	0	0	931	794	
9	0	0	0	0	931	768	
10	0	0	0	0	931	771	
11	0	0	0	0	931	831	
12	0	0	0	0	931	828	
13	0	0	0	0	931	815	
14	0	0	0	0	931	792	
15	0	0	0	0	931	735	
0	0	0	0	0	931	657	
1	0	0	0	0	931	622	
2	0	0	0	0	931	583	
3	0	0	0	0	931	563	
4	0	0	0	0	931	542	
5	0	0	0	0	931	527	
6	0	0	0	0	931	484	
7	0	0	0	0	931	395	
8	0	0	0	0	931	475	
9	0	0	0	0	931	777	
10	0	0	0	0	931	572	
11	0	0	0	0	931	403	
12	0	0	0	0	931	412	
13	0	0	0	0	931	454	
14	0	0	0	0	931	463	
15	0	0	0	0	931	440	
0	0	0	0	0	931	449	
1	0	0	0	0	931	451	
2	0	0	0	0	931	450	
3	0	0	0	0	931	460	
4	0	0	0	0	931	472	
5	0	0	0	0	931	480	
6	0	0	0	0	931	486	
7	0	0	0	0	931	504	
8	0	0	0	0	931	515	
9	0	0	0	0	931	520	
10	0	0	0	0	931	531	
11	0	0	0	0	931	542	
12	0	0	0	0	931	558	
13	0	0	0	0	931	561	
14	0	0	0	0	931	569	
15	0	0	0	0	931	579	
0	0	0	0	0	931	585	
1	0	0	0	0	931	584	
2	0	0	0	0	931	579	
3	0	0	0	0	931	571	
4	0	0	0	0	931	566	
5	0	0	0	0	931	571	
6	0	0	0	0	931	599	
7	0	0	0	0	931	608	
8	0	0	0	0	931	621	
9	0	0	0	0	931	632	
10	0	0	0	0	931	639	
11	0	0	0	0	931	644	
12	0	0	0	0	931	652	
13	0	0	0	0	931	663	
14	0	0	0	0	931	664	
15	0	0	0	0	931	671	
0	0	0	0	0	932	676	
1	0	0	0	0	932	678	
2	0	0	0	0	932	679	
3	0	0	0	0	932	681	
4	0	0	0	0	932	683	
5	0	0	0	0	932	679	
6	0	0	0	0	932	678	
7	0	0	0	0	932	683	
8	0	0	0	0	933	684	
9	0	0	0	0	934	687	
10	0	0	0	0	934	681	
11	0	0	0	0	934	692	
12	0	0	0	0	934	704	
13	0	0	0	0	934	697	
14	0	0	0	0	934	699	
15	0	0	0	0	934	688	
0	0	0	0	0	934	686	
1	0	0	0	0	934	691	
2	0	0	0	0	935	688	
3	0	0	0	0	935	684	
4	0	0	0	0	935	686	
5	0	0	0	0	935	683	
6	0	0	0	0	935	684	
7	0	0	0	0	935	643	
8	0	0	0	0	935	579	
9	0	0	0	0	935	734	
10	0	0	0	0	935	993	
11	0	0	0	0	935	660	
12	0	0	0	0	935	587	
13	0	0	0	0	935	606	
14	0	0	0	0	935	670	
15	0	0	0	0	935	700	
0	0	0	0	0	935	704	
1	0	0	0	0	935	713	
2	0	0	0	0	935	711	
3	0	0	0	0	935	703	
4	0	0	0	0	936	705	
5	0	0	0	0	936	710	
6	0	0	0	0	936	717	
7	0	0	0	0	936	732	
8	0	0	0	0	936	727	
9	0	0	0	0	936	727	
10	0	0	0	0	937	733	
11	0	0	0	0	937	728	
12	0	0	0	0	937	728	
13	0	0	0	0	937	737	
14	0	0	0	0	937	742	
15	0	0	0	0	937	756	
0	0	0	0	0	937	752	
1	0	0	0	0	937	760	
2	0	0	0	0	937	742	
3	0	0	0	0	937	723	
4	0	0	0	0	937	704	
5	0	0	0	0	937	695	
6	0	0	0	0	937	689	
7	0	0	0	0	937	683	
8	0	0	0	0	937	670	
9	0	0	0	0	937	674	
10	0	0	0	0	937	668	
11	0	0	0	0	937	662	
12	0	0	0	0	937	639	
13	0	0	0	0	937	632	
14	0	0	0	0	937	651	
15	0	0	0	0	938	639	
0	0	0	0	0	937	639	
1	0	0	0	0	938	627	
2	0	0	0	0	938	623	
3	0	0	0	0	938	627	
4	0	0	0	0	938	625	
5	0	0	0	0	938	625	
6	0	0	0	0	938	617	
7	0	0	0	0	938	615	
8	0	0	0	0	938	609	
9	0	0	0	0	938	607	
10	0	0	0	0	938	615	
11	0	0	0	0	938	608	
12	0	0	0	0	938	604	
13	0	0	0	0	938	615	
14	0	0	0	0	938	620	
15	0	0	0	0	938	615	
0	0	0	0	0	938	608	
1	0	0	0	0	938	596	
2	0	0	0	0	938	600	
3	0	0	0	0	938	593	
4	0	0	0	0	938	588	
5	0	0	0	0	938	588	
6	0	0	0	0	938	575	
7	0	0	0	0	938	560	
8	0	0	0	0	937	553	
9	0	0	0	0	938	516	
10	0	0	0	0	937	482	
11	0	0	0	0	938	654	
12	0	0	0	0	937	777	
13	0	0	0	0	937	435	
14	0	0	0	0	937	446	
15	0	0	0	0	937	467	
0	0	0	0	0	937	537	
1	0	0	0	0	937	541	
2	0	0	0	0	937	536	
3	0	0	0	0	937	551	
4	0	0	0	0	937	551	
5	0	0	0	0	937	547	
6	0	0	0	0	937	551	
7	0	0	0	0	937	560	
8	0	0	0	0	937	561	
9	0	0	0	0	937	556	
10	0	0	0	0	937	560	
11	0	0	0	0	937	560	
12	0	0	0	0	937	563	
13	0	0	0	0	937	572	
14	0	0	0	0	937	577	
15	0	0	0	0	937	580	
0	0	0	0	0	937	590	
1	0	0	0	0	937	595	
2	0	0	0	0	937	606	
3	0	0	0	0	937	609	
4	0	0	0	0	937	606	
5	0	0	0	0	937	583	
6	0	0	0	0	937	563	
7	0	0	0	0	937	553	
8	0	0	0	0	937	547	
9	0	0	0	0	937	540	
10	0	0	0	0	937	545	
11	0	0	0	0	937	547	
12	0	0	0	0	937	543	
13	0	0	0	0	936	548	
14	0	0	0	0	936	547	
15	0	0	0	0	936	547	
0	0	0	0	0	936	547	
1	0	0	0	0	936	551	
2	0	0	0	0	936	551	
3	0	0	0	0	936	550	
4	0	0	0	0	936	547	
5	0	0	0	0	936	550	
6	0	0	0	0	936	551	
7	0	0	0	0	936	545	
8	0	0	0	0	936	547	
9	0	0	0	0	936	547	
10	0	0	0	0	936	551	
11	0	0	0	0	935	551	
12	0	0	0	0	935	545	
13	0	0	0	0	935	545	
14	0	0	0	0	935	545	
15	0	0	0	0	935	558	
0	0	0	0	0	935	560	
1	0	0	0	0	935	560	
2	0	0	0	0	935	561	
3	0	0	0	0	935	550	
4	0	0	0	0	935	545	
5	0	0	0	0	935	550	
6	0	0	0	0	935	550	
7	0	0	0	0	935	548	
8	0	0	0	0	935	547	
9	0	0	0	0	935	547	
10	0	0	0	0	935	543	
11	0	0	0	0	935	497	
12	0	0	0	0	935	469	
13	0	0	0	0	935	647	
14	0	0	0	0	935	769	
15	0	0	0	0	935	448	
0	0	0	0	0	935	460	
1	0	0	0	0	935	480	
2	0	0	0	0	935	547	
3	0	0	0	0	935	545	
4	0	0	0	0	935	543	
5	0	0	0	0	935	547	
6	0	0	0	0	935	548	
7	0	0	0	0	935	553	
8	0	0	0	0	935	556	
9	0	0	0	0	935	560	
10	0	0	0	0	935	560	
11	0	0	0	0	935	560	
12	0	0	0	0	935	558	
13	0	0	0	0	935	560	
14	0	0	0	0	935	561	
15	0	0	0	0	935	560	
0	0	0	0	0	935	560	
1	0	0	0	0	935	563	
2	0	0	0	0	935	569	
3	0	0	0	0	935	575	
4	0	0	0	0	934	590	
5	0	0	0	0	934	591	
6	0	0	0	0	934	575	
7	0	0	0	0	934	553	
8	0	0	0	0	934	536	
9	0	0	0	0	934	524	
10	0	0	0	0	934	523	
11	0	0	0	0	934	529	
12	0	0	0	0	934	526	
13	0	0	0	0	934	535	
14	0	0	0	0	934	543	
15	0	0	0	0	934	543	
0	0	0	0	0	934	543	
1	0	0	0	0	934	540	
2	0	0	0	0	934	540	
3	0	0	0	0	934	529	
4	0	0	0	0	934	525	
5	0	0	0	0	934	521	
6	0	0	0	0	934	524	
7	0	0	0	0	934	524	
8	0	0	0	0	934	516	
9	0	0	0	0	934	516	
10	0	0	0	0	934	518	
11	0	0	0	0	934	515	
12	0	0	0	0	934	497	
13	0	0	0	0	934	497	
14	0	0	0	0	935	502	
15	0	0	0	0	935	492	
0	0	0	0	0	935	497	
1	0	0	0	0	935	496	
2	0	0	0	0	935	494	
3	0	0	0	0	935	483	
4	0	0	0	0	935	487	
5	0	0	0	0	935	519	
6	0	0	0	0	935	508	
7	0	0	0	0	935	508	
8	0	0	0	0	935	496	
9	0	0	0	0	935	492	
10	0	0	0	0	935	492	
11	0	0	0	0	935	492	
12	0	0	0	0	935	497	
13	0	0	0	0	935	497	
14	0	0	0	0	935	496	
15	0	0	0	0	935	497	
0	0	0	0	0	935	467	
1	0	0	0	0	935	403	
2	0	0	0	0	935	515	
3	0	0	0	0	935	777	
4	0	0	0	0	935	489	
5	0	0	0	0	935	396	
6	0	0	0	0	935	437	
7	0	0	0	0	936	507	
8	0	0	0	0	936	524	
9	0	0	0	0	936	511	
10	0	0	0	0	936	526	
11	0	0	0	0	936	527	
12	0	0	0	0	936	537	
13	0	0	0	0	937	540	
14	0	0	0	0	937	539	
15	0	0	0	0	937	542	
0	0	0	0	0	937	545	
1	0	0	0	0	937	547	
2	0	0	0	0	937	543	
3	0	0	0	0	937	543	
4	0	0	0	0	937	543	
5	0	0	0	0	937	541	
6	0	0	0	0	937	536	
7	0	0	0	0	937	540	
8	0	0	0	0	937	540	
9	0	0	0	0	937	536	
10	0	0	0	0	937	561	
11	0	0	0	0	938	590	
12	0	0	0	0	938	571	
13	0	0	0	0	938	539	
14	0	0	0	0	939	543	
15	0	0	0	0	939	545	
0	0	0	0	0	939	539	
1	0	0	0	0	939	536	
2	0	0	0	0	939	542	
3	0	0	0	0	939	540	
4	0	0	0	0	939	531	
5	0	0	0	0	939	532	
6	0	0	0	0	939	537	
7	0	0	0	0	939	531	
8	0	0	0	0	939	523	
9	0	0	0	0	939	520	
10	0	0	0	0	939	513	
11	0	0	0	0	939	510	
12	0	0	0	0	939	505	
13	0	0	0	0	939	512	
14	0	0	0	0	939	515	
15	0	0	0	0	939	519	
0	0	0	0	0	939	515	
1	0	0	0	0	939	523	
2	0	0	0	0	939	518	
3	0	0	0	0	939	519	
4	0	0	0	0	939	519	
5	0	0	0	0	939	514	
6	0	0	0	0	939	505	
7	0	0	0	0	939	511	
8	0	0	0	0	939	512	
9	0	0	0	0	940	504	
10	0	0	0	0	940	519	
11	0	0	0	0	940	528	
12	0	0	0	0	940	527	
13	0	0	0	0	940	523	
14	0	0	0	0	940	512	
15	0	0	0	0	940	511	
0	0	0	0	0	940	515	
1	0	0	0	0	940	516	
2	0	0	0	0	940	512	
3	0	0	0	0	940	512	
4	0	0	0	0	940	510	
5	0	0	0	0	940	505	
6	0	0	0	0	940	460	
7	0	0	0	0	940	440	
8	0	0	0	0	940	646	
9	0	0	0	0	940	726	
10	0	0	0	0	940	397	
11	0	0	0	0	940	425	
12	0	0	0	0	940	455	
13	0	0	0	0	940	528	
14	0	0	0	0	940	523	
15	0	0	0	0	940	520	
0	0	0	0	0	940	524	
1	0	0	0	0	939	526	
2	0	0	0	0	939	534	
3	0	0	0	0	939	533	
4	0	0	0	0	939	531	
5	0	0	0	0	939	538	
6	0	0	0	0	939	540	
7	0	0	0	0	939	540	
8	0	0	0	0	939	540	
9	0	0	0	0	939	542	
10	0	0	0	0	939	542	
11	0	0	0	0	939	545	
12	0	0	0	0	939	545	
13	0	0	0	0	939	551	
14	0	0	0	0	939	559	
15	0	0	0	0	939	565	
0	0	0	0	0	939	566	
1	0	0	0	0	939	563	
2	0	0	0	0	939	539	
3	0	0	0	0	939	519	
4	0	0	0	0	939	509	
5	0	0	0	0	939	504	
6	0	0	0	0	939	504	
7	0	0	0	0	939	494	
8	0	0	0	0	939	491	
9	0	0	0	0	939	483	
10	0	0	0	0	939	483	
11	0	0	0	0	939	487	
12	0	0	0	0	939	481	
13	0	0	0	0	939	482	
14	0	0	0	0	939	481	
15	0	0	0	0	939	480	
0	0	0	0	0	939	481	
1	0	0	0	0	938	476	
2	0	0	0	0	938	470	
3	0	0	0	0	938	459	
4	0	0	0	0	938	460	
5	0	0	0	0	937	463	
6	0	0	0	0	937	460	
7	0	0	0	0	937	463	
8	0	0	0	0	937	468	
9	0	0	0	0	937	473	
10	0	0	0	0	937	473	
11	0	0	0	0	937	473	
12	0	0	0	0	937	475	
13	0	0	0	0	937	472	
14	0	0	0	0	937	492	
15	0	0	0	0	937	487	
0	0	0	0	0	937	489	
1	0	0	0	0	937	480	
2	0	0	0	0	937	470	
3	0	0	0	0	937	473	
4	0	0	0	0	937	472	
5	0	0	0	0	937	473	
6	0	0	0	0	937	473	
7	0	0	0	0	937	483	
8	0	0	0	0	937	479	
9	0	0	0	0	937	454	
10	0	0	0	0	936	400	
11	0	0	0	0	936	480	
12	0	0	0	0	936	714	
13	0	0	0	0	936	473	
14	0	0	0	0	936	365	
15	0	0	0	0	936	415	
0	0	0	0	0	936	480	
1	0	0	0	0	936	523	
2	0	0	0	0	936	507	
3	0	0	0	0	936	518	
4	0	0	0	0	936	527	
5	0	0	0	0	936	531	
6	0	0	0	0	936	536	
7	0	0	0	0	936	536	
8	0	0	0	0	935	551	
9	0	0	0	0	935	545	
10	0	0	0	0	935	543	
11	0	0	0	0	935	550	
12	0	0	0	0	935	547	
13	0	0	0	0	935	550	
14	0	0	0	0	935	553	
15	0	0	0	0	935	558	
0	0	0	0	0	935	564	
1	0	0	0	0	935	572	
2	0	0	0	0	935	575	
3	0	0	0	0	935	583	
4	0	0	0	0	935	580	
5	0	0	0	0	935	563	
6	0	0	0	0	935	543	
7	0	0	0	0	935	527	
8	0	0	0	0	935	516	
9	0	0	0	0	935	511	
10	0	0	0	0	935	508	
11	0	0	0	0	935	504	
12	0	0	0	0	935	504	
13	0	0	0	0	935	502	
14	0	0	0	0	935	497	
15	0	0	0	0	935	496	
0	0	0	0	0	935	492	
1	0	0	0	0	935	487	
2	0	0	0	0	935	487	
3	0	0	0	0	935	486	
4	0	0	0	0	935	487	
5	0	0	0	0	935	492	
6	0	0	0	0	935	489	
7	0	0	0	0	935	496	
8	0	0	0	0	935	499	
9	0	0	0	0	935	496	
10	0	0	0	0	935	498	
11	0	0	0	0	935	496	
12	0	0	0	0	935	494	
13	0	0	0	0	935	500	
14	0	0	0	0	935	499	
15	0	0	0	0	935	492	
0	0	0	0	0	935	492	
1	0	0	0	0	935	495	
2	0	0	0	0	935	515	
3	0	0	0	0	935	504	
4	0	0	0	0	935	502	
5	0	0	0	0	935	492	
6	0	0	0	0	935	487	
7	0	0	0	0	935	489	
8	0	0	0	0	935	487	
9	0	0	0	0	935	483	
10	0	0	0	0	934	483	
11	0	0	0	0	934	483	
12	0	0	0	0	934	486	
13	0	0	0	0	934	451	
14	0	0	0	0	934	397	
15	0	0	0	0	934	526	
0	0	0	0	0	934	743	
1	0	0	0	0	934	449	
2	0	0	0	0	934	390	
3	0	0	0	0	934	435	
4	0	0	0	0	934	497	
5	0	0	0	0	934	495	
6	0	0	0	0	934	492	
7	0	0	0	0	934	499	
8	0	0	0	0	934	504	
9	0	0	0	0	934	500	
10	0	0	0	0	934	505	
11	0	0	0	0	934	505	
12	0	0	0	0	934	510	
13	0	0	0	0	934	505	
14	0	0	0	0	934	505	
15	0	0	0	0	934	502	
0	0	0	0	0	934	502	
1	0	0	0	0	935	502	
2	0	0	0	0	935	504	
3	0	0	0	0	935	508	
4	0	0	0	0	935	515	
5	0	0	0	0	935	521	
6	0	0	0	0	935	530	
7	0	0	0	0	935	542	
8	0	0	0	0	935	537	
9	0	0	0	0	935	529	
10	0	0	0	0	935	515	
11	0	0	0	0	935	504	
12	0	0	0	0	935	496	
13	0	0	0	0	935	483	
14	0	0	0	0	935	479	
15	0	0	0	0	935	476	
0	0	0	0	0	935	473	
1	0	0	0	0	935	470	
2	0	0	0	0	935	472	
3	0	0	0	0	936	467	
4	0	0	0	0	936	467	
5	0	0	0	0	936	467	
6	0	0	0	0	937	465	
7	0	0	0	0	937	463	
8	0	0	0	0	937	465	
9	0	0	0	0	937	465	
10	0	0	0	0	937	465	
11	0	0	0	0	937	467	
12	0	0	0	0	938	468	
13	0	0	0	0	939	470	
14	0	0	0	0	939	470	
15	0	0	0	0	939	475	
0	0	0	0	0	939	475	
1	0	0	0	0	940	473	
2	0	0	0	0	940	473	
3	0	0	0	0	940	470	
4	0	0	0	0	940	480	
5	0	0	0	0	940	500	
6	0	0	0	0	940	492	
7	0	0	0	0	940	492	
8	0	0	0	0	940	487	
9	0	0	0	0	940	489	
10	0	0	0	0	940	493	
11	0	0	0	0	940	495	
12	0	0	0	0	941	499	
13	0	0	0	0	941	496	
14	0	0	0	0	942	499	
15	0	0	0	0	942	499	
0	0	0	0	0	942	444	
1	0	0	0	0	942	399	
2	0	0	0	0	942	577	
3	0	0	0	0	942	728	
4	0	0	0	0	942	395	
5	0	0	0	0	942	385	
6	0	0	0	0	943	428	
7	0	0	0	0	943	483	
8	0	0	0	0	943	473	
9	0	0	0	0	943	472	
10	0	0	0	0	943	476	
11	0	0	0	0	943	478	
12	0	0	0	0	943	478	
13	0	0	0	0	943	476	
14	0	0	0	0	943	478	
15	0	0	0	0	944	481	
0	0	0	0	0	944	486	
1	0	0	0	0	944	487	
2	0	0	0	0	944	489	
3	0	0	0	0	944	494	
4	0	0	0	0	944	496	
5	0	0	0	0	944	497	
6	0	0	0	0	944	504	
7	0	0	0	0	944	511	
8	0	0	0	0	944	519	
9	0	0	0	0	944	526	
10	0	0	0	0	944	536	
11	0	0	0	0	944	532	
12	0	0	0	0	944	509	
13	0	0	0	0	944	496	
14	0	0	0	0	944	483	
15	0	0	0	0	944	476	
0	0	0	0	0	944	470	
1	0	0	0	0	944	472	
2	0	0	0	0	944	463	
3	0	0	0	0	944	460	
4	0	0	0	0	944	457	
5	0	0	0	0	944	457	
6	0	0	0	0	944	457	
7	0	0	0	0	944	455	
8	0	0	0	0	944	455	
9	0	0	0	0	944	457	
10	0	0	0	0	944	462	
11	0	0	0	0	944	468	
12	0	0	0	0	944	473	
13	0	0	0	0	944	479	
14	0	0	0	0	944	479	
15	0	0	0	0	944	481	
0	0	0	0	0	944	486	
1	0	0	0	0	944	487	
2	0	0	0	0	944	491	
3	0	0	0	0	944	491	
4	0	0	0	0	944	492	
5	0	0	0	0	944	507	
6	0	0	0	0	944	511	
7	0	0	0	0	944	511	
8	0	0	0	0	944	508	
9	0	0	0	0	944	504	
10	0	0	0	0	944	511	
11	0	0	0	0	944	513	
12	0	0	0	0	944	519	
13	0	0	0	0	944	523	
14	0	0	0	0	944	527	
15	0	0	0	0	944	524	
0	0	0	0	0	944	508	
1	0	0	0	0	944	451	
2	0	0	0	0	944	504	
3	0	0	0	0	944	732	
4	0	0	0	0	944	536	
5	0	0	0	0	944	393	
6	0	0	0	0	944	448	
7	0	0	0	0	944	490	
8	0	0	0	0	944	529	
9	0	0	0	0	944	515	
10	0	0	0	0	944	523	
11	0	0	0	0	944	531	
12	0	0	0	0	945	531	
13	0	0	0	0	945	536	
14	0	0	0	0	945	542	
15	0	0	0	0	945	536	
0	0	0	0	0	945	535	
1	0	0	0	0	945	533	
2	0	0	0	0	945	529	
3	0	0	0	0	945	524	
4	0	0	0	0	945	529	
5	0	0	0	0	945	528	
6	0	0	0	0	945	531	
7	0	0	0	0	945	536	
8	0	0	0	0	945	543	
9	0	0	0	0	945	551	
10	0	0	0	0	945	551	
11	0	0	0	0	945	551	
12	0	0	0	0	945	537	
13	0	0	0	0	945	519	
14	0	0	0	0	945	510	
15	0	0	0	0	945	503	
0	0	0	0	0	945	497	
1	0	0	0	0	945	495	
2	0	0	0	0	945	491	
3	0	0	0	0	945	489	
4	0	0	0	0	945	487	
5	0	0	0	0	945	487	
6	0	0	0	0	945	487	
7	0	0	0	0	945	487	
8	0	0	0	0	945	487	
9	0	0	0	0	945	484	
10	0	0	0	0	945	487	
11	0	0	0	0	945	489	
12	0	0	0	0	945	492	
13	0	0	0	0	945	495	
14	0	0	0	0	945	499	
15	0	0	0	0	945	501	
0	0	0	0	0	945	504	
1	0	0	0	0	945	504	
2	0	0	0	0	945	504	
3	0	0	0	0	945	511	
4	0	0	0	0	945	524	
5	0	0	0	0	945	523	
6	0	0	0	0	945	521	
7	0	0	0	0	945	518	
8	0	0	0	0	945	510	
9	0	0	0	0	945	513	
10	0	0	0	0	945	511	
11	0	0	0	0	945	511	
12	0	0	0	0	945	513	
13	0	0	0	0	945	515	
14	0	0	0	0	945	518	
15	0	0	0	0	945	492	
0	0	0	0	0	945	435	
1	0	0	0	0	945	536	
2	0	0	0	0	945	768	
3	0	0	0	0	945	502	
4	0	0	0	0	945	422	
5	0	0	0	0	945	462	
6	0	0	0	0	945	516	
7	0	0	0	0	945	518	
8	0	0	0	0	945	510	
9	0	0	0	0	945	516	
10	0	0	0	0	945	515	
11	0	0	0	0	945	516	
12	0	0	0	0	945	516	
13	0	0	0	0	945	518	
14	0	0	0	0	945	519	
15	0	0	0	0	945	513	
0	0	0	0	0	945	512	
1	0	0	0	0	945	512	
2	0	0	0	0	945	512	
3	0	0	0	0	945	511	
4	0	0	0	0	945	511	
5	0	0	0	0	945	512	
6	0	0	0	0	945	515	
7	0	0	0	0	945	524	
8	0	0	0	0	945	531	
9	0	0	0	0	945	536	
10	0	0	0	0	945	529	
11	0	0	0	0	945	512	
12	0	0	0	0	945	492	
13	0	0	0	0	945	491	
14	0	0	0	0	945	486	
15	0	0	0	0	945	487	
0	0	0	0	0	945	492	
1	0	0	0	0	945	492	
2	0	0	0	0	945	494	
3	0	0	0	0	945	495	
4	0	0	0	0	945	496	
5	0	0	0	0	945	499	
6	0	0	0	0	944	499	
7	0	0	0	0	944	503	
8	0	0	0	0	944	502	
9	0	0	0	0	944	504	
10	0	0	0	0	944	505	
11	0	0	0	0	944	511	
12	0	0	0	0	944	510	
13	0	0	0	0	944	513	
14	0	0	0	0	944	516	
15	0	0	0	0	944	516	
0	0	0	0	0	944	515	
1	0	0	0	0	944	510	
2	0	0	0	0	944	514	
3	0	0	0	0	944	531	
4	0	0	0	0	944	526	
5	0	0	0	0	944	524	
6	0	0	0	0	944	518	
7	0	0	0	0	944	508	
8	0	0	0	0	944	511	
9	0	0	0	0	944	510	
10	0	0	0	0	944	508	
11	0	0	0	0	944	510	
12	0	0	0	0	944	510	
13	0	0	0	0	944	508	
14	0	0	0	0	944	486	
15	0	0	0	0	944	419	
0	0	0	0	0	944	508	
1	0	0	0	0	944	777	
2	0	0	0	0	944	543	
3	0	0	0	0	944	419	
4	0	0	0	0	944	465	
5	0	0	0	0	944	515	
6	0	0	0	0	944	517	
7	0	0	0	0	943	515	
8	0	0	0	0	943	519	
9	0	0	0	0	943	521	
10	0	0	0	0	943	527	
11	0	0	0	0	943	523	
12	0	0	0	0	943	526	
13	0	0	0	0	943	527	
14	0	0	0	0	943	531	
15	0	0	0	0	943	531	
0	0	0	0	0	943	531	
1	0	0	0	0	943	532	
2	0	0	0	0	943	534	
3	0	0	0	0	943	529	
4	0	0	0	0	942	536	
5	0	0	0	0	942	543	
6	0	0	0	0	942	548	
7	0	0	0	0	942	553	
8	0	0	0	0	942	563	
9	0	0	0	0	942	556	
10	0	0	0	0	942	545	
11	0	0	0	0	942	536	
12	0	0	0	0	942	519	
13	0	0	0	0	942	516	
14	0	0	0	0	942	511	
15	0	0	0	0	942	513	
0	0	0	0	0	942	515	
1	0	0	0	0	942	511	
2	0	0	0	0	942	510	
3	0	0	0	0	942	508	
4	0	0	0	0	942	508	
5	0	0	0	0	942	505	
6	0	0	0	0	941	504	
7	0	0	0	0	941	504	
8	0	0	0	0	941	503	
9	0	0	0	0	941	504	
10	0	0	0	0	941	504	
11	0	0	0	0	941	511	
12	0	0	0	0	941	505	
13	0	0	0	0	940	509	
14	0	0	0	0	940	511	
15	0	0	0	0	940	508	
0	0	0	0	0	940	509	
1	0	0	0	0	940	512	
2	0	0	0	0	940	527	
3	0	0	0	0	940	528	
4	0	0	0	0	940	526	
5	0	0	0	0	940	519	
6	0	0	0	0	940	511	
7	0	0	0	0	940	516	
8	0	0	0	0	940	513	
9	0	0	0	0	940	518	
10	0	0	0	0	940	519	
11	0	0	0	0	940	519	
12	0	0	0	0	940	519	
13	0	0	0	0	940	504	
14	0	0	0	0	940	435	
15	0	0	0	0	940	484	
0	0	0	0	0	940	764	
1	0	0	0	0	940	609	
2	0	0	0	0	940	420	
3	0	0	0	0	940	467	
4	0	0	0	0	940	517	
5	0	0	0	0	940	531	
6	0	0	0	0	940	519	
7	0	0	0	0	940	527	
8	0	0	0	0	940	529	
9	0	0	0	0	940	532	
10	0	0	0	0	940	534	
11	0	0	0	0	940	536	
12	0	0	0	0	940	536	
13	0	0	0	0	940	540	
14	0	0	0	0	940	534	
15	0	0	0	0	940	534	
0	0	0	0	0	940	536	
1	0	0	0	0	940	536	
2	0	0	0	0	940	537	
3	0	0	0	0	940	537	
4	0	0	0	0	940	543	
5	0	0	0	0	939	550	
6	0	0	0	0	939	558	
7	0	0	0	0	939	566	
8	0	0	0	0	939	566	
9	0	0	0	0	939	553	
10	0	0	0	0	939	540	
11	0	0	0	0	939	531	
12	0	0	0	0	939	526	
13	0	0	0	0	939	523	
14	0	0	0	0	939	519	
15	0	0	0	0	939	519	
0	0	0	0	0	939	519	
1	0	0	0	0	939	520	
2	0	0	0	0	939	518	
3	0	0	0	0	939	516	
4	0	0	0	0	939	515	
5	0	0	0	0	939	511	
6	0	0	0	0	939	515	
7	0	0	0	0	939	515	
8	0	0	0	0	939	515	
9	0	0	0	0	939	515	
10	0	0	0	0	939	515	
11	0	0	0	0	939	519	
12	0	0	0	0	939	515	
13	0	0	0	0	939	515	
14	0	0	0	0	939	515	
15	0	0	0	0	939	511	
0	0	0	0	0	939	524	
1	0	0	0	0	939	531	
2	0	0	0	0	939	527	
3	0	0	0	0	938	526	
4	0	0	0	0	938	513	
5	0	0	0	0	938	517	
6	0	0	0	0	938	516	
7	0	0	0	0	938	518	
8	0	0	0	0	938	519	
9	0	0	0	0	938	519	
10	0	0	0	0	938	519	
11	0	0	0	0	937	511	
12	0	0	0	0	938	460	
13	0	0	0	0	938	455	
14	0	0	0	0	937	669	
15	0	0	0	0	938	681	
0	0	0	0	0	938	407	
1	0	0	0	0	937	452	
2	0	0	0	0	938	483	
3	0	0	0	0	938	535	
4	0	0	0	0	938	524	
5	0	0	0	0	938	524	
6	0	0	0	0	938	527	
7	0	0	0	0	938	531	
8	0	0	0	0	938	532	
9	0	0	0	0	938	535	
10	0	0	0	0	939	536	
11	0	0	0	0	939	537	
12	0	0	0	0	939	540	
13	0	0	0	0	939	537	
14	0	0	0	0	939	539	
15	0	0	0	0	939	540	
0	0	0	0	0	939	536	
1	0	0	0	0	939	540	
2	0	0	0	0	939	547	
3	0	0	0	0	939	551	
4	0	0	0	0	940	561	
5	0	0	0	0	940	572	
6	0	0	0	0	940	568	
7	0	0	0	0	940	559	
8	0	0	0	0	940	543	
9	0	0	0	0	940	529	
10	0	0	0	0	940	526	
11	0	0	0	0	940	519	
12	0	0	0	0	940	518	
13	0	0	0	0	940	518	
14	0	0	0	0	940	516	
15	0	0	0	0	941	511	
0	0	0	0	0	941	512	
1	0	0	0	0	942	509	
2	0	0	0	0	942	512	
3	0	0	0	0	942	513	
4	0	0	0	0	942	513	
5	0	0	0	0	942	518	
6	0	0	0	0	942	515	
7	0	0	0	0	943	515	
8	0	0	0	0	943	515	
9	0	0	0	0	943	515	
10	0	0	0	0	943	518	
11	0	0	0	0	944	512	
12	0	0	0	0	944	526	
13	0	0	0	0	944	531	
14	0	0	0	0	944	531	
15	0	0	0	0	944	530	
0	0	0	0	0	944	519	
1	0	0	0	0	944	518	
2	0	0	0	0	944	519	
3	0	0	0	0	944	516	
4	0	0	0	0	945	519	
5	0	0	0	0	945	520	
6	0	0	0	0	945	521	
7	0	0	0	0	945	519	
8	0	0	0	0	945	492	
9	0	0	0	0	945	436	
10	0	0	0	0	946	541	
11	0	0	0	0	946	768	
12	0	0	0	0	946	496	
13	0	0	0	0	947	428	
14	0	0	0	0	947	463	
15	0	0	0	0	947	519	
0	0	0	0	0	947	526	
1	0	0	0	0	947	519	
2	0	0	0	0	947	527	
3	0	0	0	0	947	527	
4	0	0	0	0	947	532	
5	0	0	0	0	947	534	
6	0	0	0	0	947	535	
7	0	0	0	0	947	537	
8	0	0	0	0	947	540	
9	0	0	0	0	947	540	
10	0	0	0	0	947	540	
11	0	0	0	0	947	539	
12	0	0	0	0	947	542	
13	0	0	0	0	948	543	
14	0	0	0	0	948	547	
15	0	0	0	0	948	555	
0	0	0	0	0	948	563	
1	0	0	0	0	948	571	
2	0	0	0	0	948	572	
3	0	0	0	0	948	566	
4	0	0	0	0	948	551	
5	0	0	0	0	948	536	
6	0	0	0	0	948	531	
7	0	0	0	0	948	526	
8	0	0	0	0	948	524	
9	0	0	0	0	948	521	
10	0	0	0	0	948	519	
11	0	0	0	0	948	519	
12	0	0	0	0	948	518	
13	0	0	0	0	948	515	
14	0	0	0	0	948	516	
15	0	0	0	0	948	519	
0	0	0	0	0	948	519	
1	0	0	0	0	948	519	
2	0	0	0	0	948	521	
3	0	0	0	0	949	523	
4	0	0	0	0	948	523	
5	0	0	0	0	949	519	
6	0	0	0	0	949	519	
7	0	0	0	0	949	519	
8	0	0	0	0	949	523	
9	0	0	0	0	949	519	
10	0	0	0	0	949	527	
11	0	0	0	0	950	540	
12	0	0	0	0	950	535	
13	0	0	0	0	950	531	
14	0	0	0	0	950	525	
15	0	0	0	0	950	519	
0	0	0	0	0	949	521	
1	0	0	0	0	950	521	
2	0	0	0	0	950	519	
3	0	0	0	0	950	519	
4	0	0	0	0	950	521	
5	0	0	0	0	950	523	
6	0	0	0	0	950	487	
7	0	0	0	0	950	435	
8	0	0	0	0	950	564	
9	0	0	0	0	950	791	
10	0	0	0	0	950	504	
11	0	0	0	0	949	448	
12	0	0	0	0	950	487	
13	0	0	0	0	949	531	
14	0	0	0	0	949	525	
15	0	0	0	0	949	527	
0	0	0	0	0	949	531	
1	0	0	0	0	949	531	
2	0	0	0	0	949	536	
3	0	0	0	0	949	536	
4	0	0	0	0	949	537	
5	0	0	0	0	949	539	
6	0	0	0	0	949	536	
7	0	0	0	0	949	540	
8	0	0	0	0	949	540	
9	0	0	0	0	948	540	
10	0	0	0	0	948	543	
11	0	0	0	0	948	543	
12	0	0	0	0	948	545	
13	0	0	0	0	948	552	
14	0	0	0	0	948	559	
15	0	0	0	0	948	566	
0	0	0	0	0	948	569	
1	0	0	0	0	948	563	
2	0	0	0	0	948	551	
3	0	0	0	0	948	534	
4	0	0	0	0	948	527	
5	0	0	0	0	948	524	
6	0	0	0	0	948	521	
7	0	0	0	0	948	519	
8	0	0	0	0	948	519	
9	0	0	0	0	948	518	
10	0	0	0	0	948	519	
11	0	0	0	0	948	515	
12	0	0	0	0	948	513	
13	0	0	0	0	948	516	
14	0	0	0	0	948	516	
15	0	0	0	0	948	518	
0	0	0	0	0	948	519	
1	0	0	0	0	948	519	
2	0	0	0	0	948	520	
3	0	0	0	0	947	521	
4	0	0	0	0	947	519	
5	0	0	0	0	947	521	
6	0	0	0	0	947	521	
7	0	0	0	0	947	519	
8	0	0	0	0	947	521	
9	0	0	0	0	947	537	
10	0	0	0	0	947	536	
11	0	0	0	0	947	532	
12	0	0	0	0	947	527	
13	0	0	0	0	947	519	
14	0	0	0	0	947	521	
15	0	0	0	0	947	521	
0	0	0	0	0	947	521	
1	0	0	0	0	947	521	
2	0	0	0	0	947	526	
3	0	0	0	0	947	523	
4	0	0	0	0	947	500	
5	0	0	0	0	947	441	
6	0	0	0	0	947	515	
7	0	0	0	0	947	780	
8	0	0	0	0	947	566	
9	0	0	0	0	947	431	
10	0	0	0	0	947	473	
11	0	0	0	0	947	521	
12	0	0	0	0	947	534	
13	0	0	0	0	947	524	
14	0	0	0	0	947	529	
15	0	0	0	0	947	534	
0	0	0	0	0	946	532	
1	0	0	0	0	946	536	
2	0	0	0	0	946	537	
3	0	0	0	0	946	536	
4	0	0	0	0	946	537	
5	0	0	0	0	945	536	
6	0	0	0	0	945	536	
7	0	0	0	0	945	537	
8	0	0	0	0	945	536	
9	0	0	0	0	945	537	
10	0	0	0	0	945	542	
11	0	0	0	0	945	547	
12	0	0	0	0	945	555	
13	0	0	0	0	945	561	
14	0	0	0	0	945	567	
15	0	0	0	0	945	560	
0	0	0	0	0	945	547	
1	0	0	0	0	945	536	
2	0	0	0	0	945	526	
3	0	0	0	0	945	519	
4	0	0	0	0	945	519	
5	0	0	0	0	945	519	
6	0	0	0	0	945	515	
7	0	0	0	0	945	515	
8	0	0	0	0	945	515	
9	0	0	0	0	944	515	
10	0	0	0	0	944	512	
11	0	0	0	0	944	515	
12	0	0	0	0	944	515	
13	0	0	0	0	944	512	
14	0	0	0	0	944	518	
15	0	0	0	0	944	515	
0	0	0	0	0	944	519	
1	0	0	0	0	944	519	
2	0	0	0	0	944	519	
3	0	0	0	0	944	521	
4	0	0	0	0	944	524	
5	0	0	0	0	944	526	
6	0	0	0	0	944	524	
7	0	0	0	0	944	519	
8	0	0	0	0	944	531	
9	0	0	0	0	944	536	
10	0	0	0	0	944	536	
11	0	0	0	0	944	534	
12	0	0	0	0	944	524	
13	0	0	0	0	944	521	
14	0	0	0	0	944	524	
15	0	0	0	0	944	521	
0	0	0	0	0	944	521	
1	0	0	0	0	944	523	
2	0	0	0	0	944	521	
3	0	0	0	0	944	519	
4	0	0	0	0	944	462	
5	0	0	0	0	944	448	
6	0	0	0	0	944	683	
7	0	0	0	0	944	716	
8	0	0	0	0	944	425	
9	0	0	0	0	944	457	
10	0	0	0	0	944	496	
11	0	0	0	0	944	535	
12	0	0	0	0	944	519	
13	0	0	0	0	943	527	
14	0	0	0	0	944	528	
15	0	0	0	0	943	528	
0	0	0	0	0	943	531	
1	0	0	0	0	943	531	
2	0	0	0	0	943	531	
3	0	0	0	0	943	531	
4	0	0	0	0	943	531	
5	0	0	0	0	943	532	
6	0	0	0	0	943	531	
7	0	0	0	0	943	535	
8	0	0	0	0	943	536	
9	0	0	0	0	943	536	
10	0	0	0	0	943	542	
11	0	0	0	0	943	550	
12	0	0	0	0	943	556	
13	0	0	0	0	943	564	
14	0	0	0	0	943	563	
15	0	0	0	0	943	547	
0	0	0	0	0	943	536	
1	0	0	0	0	943	525	
2	0	0	0	0	943	518	
3	0	0	0	0	943	516	
4	0	0	0	0	943	513	
5	0	0	0	0	942	512	
6	0	0	0	0	942	511	
7	0	0	0	0	942	511	
8	0	0	0	0	942	509	
9	0	0	0	0	942	508	
10	0	0	0	0	942	510	
11	0	0	0	0	942	511	
12	0	0	0	0	942	515	
13	0	0	0	0	942	510	
14	0	0	0	0	942	511	
15	0	0	0	0	942	516	
0	0	0	0	0	942	518	
1	0	0	0	0	942	516	
2	0	0	0	0	942	519	
3	0	0	0	0	942	519	
4	0	0	0	0	942	519	
5	0	0	0	0	942	519	
6	0	0	0	0	942	519	
7	0	0	0	0	942	518	
8	0	0	0	0	942	519	
9	0	0	0	0	942	518	
10	0	0	0	0	942	518	
11	0	0	0	0	942	532	
12	0	0	0	0	942	529	
13	0	0	0	0	942	528	
14	0	0	0	0	942	524	
15	0	0	0	0	942	518	
0	0	0	0	0	942	520	
1	0	0	0	0	942	521	
2	0	0	0	0	942	524	
3	0	0	0	0	942	521	
4	0	0	0	0	942	524	
5	0	0	0	0	942	526	
6	0	0	0	0	942	489	
7	0	0	0	0	942	436	
8	0	0	0	0	942	575	
9	0	0	0	0	942	799	
10	0	0	0	0	942	496	
11	0	0	0	0	942	451	
12	0	0	0	0	942	484	
13	0	0	0	0	942	536	
14	0	0	0	0	942	528	
15	0	0	0	0	942	526	
0	0	0	0	0	942	536	
1	0	0	0	0	942	536	
2	0	0	0	0	942	536	
3	0	0	0	0	942	539	
4	0	0	0	0	942	540	
5	0	0	0	0	942	536	
6	0	0	0	0	942	540	
7	0	0	0	0	942	540	
8	0	0	0	0	942	542	
9	0	0	0	0	942	540	
10	0	0	0	0	941	540	
11	0	0	0	0	941	543	
12	0	0	0	0	941	543	
13	0	0	0	0	941	551	
14	0	0	0	0	941	558	
15	0	0	0	0	941	566	
0	0	0	0	0	941	571	
1	0	0	0	0	941	566	
2	0	0	0	0	941	551	
3	0	0	0	0	941	540	
4	0	0	0	0	941	534	
5	0	0	0	0	941	524	
6	0	0	0	0	941	523	
7	0	0	0	0	941	519	
8	0	0	0	0	941	518	
9	0	0	0	0	941	518	
10	0	0	0	0	941	518	
11	0	0	0	0	941	516	
12	0	0	0	0	941	512	
13	0	0	0	0	941	511	
14	0	0	0	0	941	515	
15	0	0	0	0	941	512	
0	0	0	0	0	941	515	
1	0	0	0	0	941	518	
2	0	0	0	0	941	515	
3	0	0	0	0	941	516	
4	0	0	0	0	941	515	
5	0	0	0	0	941	518	
6	0	0	0	0	941	515	
7	0	0	0	0	940	517	
8	0	0	0	0	940	518	
9	0	0	0	0	940	516	
10	0	0	0	0	940	518	
11	0	0	0	0	940	512	
12	0	0	0	0	940	513	
13	0	0	0	0	940	528	
14	0	0	0	0	940	527	
15	0	0	0	0	940	526	
0	0	0	0	0	940	518	
1	0	0	0	0	940	513	
2	0	0	0	0	940	515	
3	0	0	0	0	940	512	
4	0	0	0	0	940	513	
5	0	0	0	0	940	511	
6	0	0	0	0	940	513	
7	0	0	0	0	940	511	
8	0	0	0	0	940	476	
9	0	0	0	0	940	432	
10	0	0	0	0	940	568	
11	0	0	0	0	940	737	
12	0	0	0	0	940	440	
13	0	0	0	0	940	428	
14	0	0	0	0	940	452	
15	0	0	0	0	940	508	
0	0	0	0	0	940	515	
1	0	0	0	0	940	511	
2	0	0	0	0	940	518	
3	0	0	0	0	940	519	
4	0	0	0	0	940	523	
5	0	0	0	0	940	523	
6	0	0	0	0	940	524	
7	0	0	0	0	940	527	
8	0	0	0	0	940	527	
9	0	0	0	0	940	529	
10	0	0	0	0	940	531	
11	0	0	0	0	940	531	
12	0	0	0	0	940	532	
13	0	0	0	0	940	535	
14	0	0	0	0	940	540	
15	0	0	0	0	940	547	
0	0	0	0	0	940	556	
1	0	0	0	0	940	563	
2	0	0	0	0	940	567	
3	0	0	0	0	940	558	
4	0	0	0	0	940	543	
5	0	0	0	0	940	529	
6	0	0	0	0	940	519	
7	0	0	0	0	940	515	
8	0	0	0	0	940	511	
9	0	0	0	0	940	512	
10	0	0	0	0	940	509	
11	0	0	0	0	940	508	
12	0	0	0	0	940	508	
13	0	0	0	0	940	507	
14	0	0	0	0	940	508	
15	0	0	0	0	940	508	
0	0	0	0	0	940	510	
1	0	0	0	0	940	510	
2	0	0	0	0	940	512	
3	0	0	0	0	940	514	
4	0	0	0	0	940	513	
5	0	0	0	0	940	513	
6	0	0	0	0	940	515	
7	0	0	0	0	940	515	
8	0	0	0	0	940	511	
9	0	0	0	0	940	512	
10	0	0	0	0	940	515	
11	0	0	0	0	940	512	
12	0	0	0	0	940	511	
13	0	0	0	0	940	524	
14	0	0	0	0	940	528	
15	0	0	0	0	940	526	
0	0	0	0	0	940	519	
1	0	0	0	0	940	511	
2	0	0	0	0	940	513	
3	0	0	0	0	940	513	
4	0	0	0	0	940	512	
5	0	0	0	0	940	512	
6	0	0	0	0	940	515	
7	0	0	0	0	940	515	
8	0	0	0	0	940	496	
9	0	0	0	0	940	443	
10	0	0	0	0	940	507	
11	0	0	0	0	940	739	
12	0	0	0	0	940	542	
13	0	0	0	0	940	419	
14	0	0	0	0	940	460	
15	0	0	0	0	940	500	
0	0	0	0	0	940	527	
1	0	0	0	0	940	519	
2	0	0	0	0	940	524	
3	0	0	0	0	940	524	
4	0	0	0	0	940	524	
5	0	0	0	0	940	527	
6	0	0	0	0	940	531	
7	0	0	0	0	940	534	
8	0	0	0	0	940	536	
9	0	0	0	0	940	536	
10	0	0	0	0	940	537	
11	0	0	0	0	940	536	
12	0	0	0	0	940	536	
13	0	0	0	0	940	539	
14	0	0	0	0	940	543	
15	0	0	0	0	940	548	
0	0	0	0	0	940	556	
1	0	0	0	0	940	561	
2	0	0	0	0	940	563	
3	0	0	0	0	940	560	
4	0	0	0	0	940	543	
5	0	0	0	0	940	531	
6	0	0	0	0	940	521	
7	0	0	0	0	940	515	
8	0	0	0	0	940	515	
9	0	0	0	0	940	515	
10	0	0	0	0	940	511	
11	0	0	0	0	940	510	
12	0	0	0	0	940	510	
13	0	0	0	0	940	510	
14	0	0	0	0	940	507	
15	0	0	0	0	940	511	
0	0	0	0	0	940	510	
1	0	0	0	0	940	510	
2	0	0	0	0	940	511	
3	0	0	0	0	940	512	
4	0	0	0	0	940	512	
5	0	0	0	0	940	514	
6	0	0	0	0	940	513	
7	0	0	0	0	940	515	
8	0	0	0	0	940	515	
9	0	0	0	0	940	519	
10	0	0	0	0	940	517	
11	0	0	0	0	940	519	
12	0	0	0	0	940	519	
13	0	0	0	0	940	519	
14	0	0	0	0	940	519	
15	0	0	0	0	940	518	
0	0	0	0	0	940	526	
1	0	0	0	0	940	536	
2	0	0	0	0	940	533	
3	0	0	0	0	940	531	
4	0	0	0	0	940	521	
5	0	0	0	0	940	524	
6	0	0	0	0	940	524	
7	0	0	0	0	940	521	
8	0	0	0	0	940	523	
9	0	0	0	0	940	521	
10	0	0	0	0	940	519	
11	0	0	0	0	940	518	
12	0	0	0	0	940	463	
13	0	0	0	0	940	449	
14	0	0	0	0	940	667	
15	0	0	0	0	940	716	
0	0	0	0	0	940	435	
1	0	0	0	0	940	467	
2	0	0	0	0	940	498	
3	0	0	0	0	940	527	
4	0	0	0	0	940	515	
5	0	0	0	0	940	519	
6	0	0	0	0	940	521	
7	0	0	0	0	940	525	
8	0	0	0	0	940	526	
9	0	0	0	0	940	527	
10	0	0	0	0	940	527	
11	0	0	0	0	940	531	
12	0	0	0	0	940	529	
13	0	0	0	0	940	527	
14	0	0	0	0	940	527	
15	0	0	0	0	940	527	
0	0	0	0	0	940	526	
1	0	0	0	0	940	526	
2	0	0	0	0	940	532	
3	0	0	0	0	940	537	
4	0	0	0	0	940	543	
5	0	0	0	0	940	555	
6	0	0	0	0	940	559	
7	0	0	0	0	940	550	
8	0	0	0	0	940	536	
9	0	0	0	0	940	527	
10	0	0	0	0	940	519	
11	0	0	0	0	940	515	
12	0	0	0	0	940	513	
13	0	0	0	0	940	512	
14	0	0	0	0	940	513	
15	0	0	0	0	941	510	
0	0	0	0	0	941	510	
1	0	0	0	0	941	510	
2	0	0	0	0	941	510	
3	0	0	0	0	942	508	
4	0	0	0	0	942	512	
5	0	0	0	0	942	512	
6	0	0	0	0	942	511	
7	0	0	0	0	942	513	
8	0	0	0	0	942	513	
9	0	0	0	0	942	515	
10	0	0	0	0	943	515	
11	0	0	0	0	943	519	
12	0	0	0	0	943	519	
13	0	0	0	0	943	519	
14	0	0	0	0	944	519	
15	0	0	0	0	944	519	
0	0	0	0	0	944	519	
1	0	0	0	0	944	519	
2	0	0	0	0	944	518	
3	0	0	0	0	944	519	
4	0	0	0	0	944	518	
5	0	0	0	0	944	515	
6	0	0	0	0	945	519	
7	0	0	0	0	945	534	
8	0	0	0	0	945	531	
9	0	0	0	0	945	532	
10	0	0	0	0	946	526	
11	0	0	0	0	946	521	
12	0	0	0	0	947	526	
13	0	0	0	0	947	524	
14	0	0	0	0	947	524	
15	0	0	0	0	947	524	
0	0	0	0	0	947	527	
1	0	0	0	0	947	527	
2	0	0	0	0	947	487	
3	0	0	0	0	947	436	
4	0	0	0	0	948	588	
5	0	0	0	0	948	788	
6	0	0	0	0	948	487	
7	0	0	0	0	948	455	
8	0	0	0	0	949	492	
9	0	0	0	0	949	536	
10	0	0	0	0	950	526	
11	0	0	0	0	950	527	
12	0	0	0	0	950	531	
13	0	0	0	0	950	531	
14	0	0	0	0	950	534	
15	0	0	0	0	950	536	
0	0	0	0	0	951	536	
1	0	0	0	0	951	536	
2	0	0	0	0	951	537	
3	0	0	0	0	951	536	
4	0	0	0	0	951	537	
5	0	0	0	0	952	537	
6	0	0	0	0	952	536	
7	0	0	0	0	952	539	
8	0	0	0	0	952	542	
9	0	0	0	0	952	547	
10	0	0	0	0	952	554	
11	0	0	0	0	952	563	
12	0	0	0	0	952	568	
13	0	0	0	0	952	567	
14	0	0	0	0	952	553	
15	0	0	0	0	952	540	
0	0	0	0	0	952	532	
1	0	0	0	0	952	527	
2	0	0	0	0	952	524	
3	0	0	0	0	952	524	
4	0	0	0	0	952	523	
5	0	0	0	0	952	521	
6	0	0	0	0	952	523	
7	0	0	0	0	952	524	
8	0	0	0	0	952	519	
9	0	0	0	0	952	519	
10	0	0	0	0	952	521	
11	0	0	0	0	952	523	
12	0	0	0	0	952	521	
13	0	0	0	0	952	524	
14	0	0	0	0	952	526	
15	0	0	0	0	952	526	
0	0	0	0	0	952	527	
1	0	0	0	0	952	527	
2	0	0	0	0	952	527	
3	0	0	0	0	952	525	
4	0	0	0	0	952	527	
5	0	0	0	0	952	527	
6	0	0	0	0	952	527	
7	0	0	0	0	952	527	
8	0	0	0	0	952	526	
9	0	0	0	0	952	527	
10	0	0	0	0	952	524	
11	0	0	0	0	952	525	
12	0	0	0	0	952	525	
13	0	0	0	0	952	521	
14	0	0	0	0	952	524	
15	0	0	0	0	952	539	
0	0	0	0	0	952	536	
1	0	0	0	0	952	536	
2	0	0	0	0	952	531	
3	0	0	0	0	952	521	
4	0	0	0	0	952	524	
5	0	0	0	0	952	524	
6	0	0	0	0	952	523	
7	0	0	0	0	952	520	
8	0	0	0	0	952	521	
9	0	0	0	0	952	521	
10	0	0	0	0	952	486	
11	0	0	0	0	952	430	
12	0	0	0	0	952	547	
13	0	0	0	0	952	783	
14	0	0	0	0	952	508	
15	0	0	0	0	952	444	
0	0	0	0	0	952	477	
1	0	0	0	0	952	524	
2	0	0	0	0	952	524	
3	0	0	0	0	952	521	
4	0	0	0	0	952	527	
5	0	0	0	0	952	527	
6	0	0	0	0	952	531	
7	0	0	0	0	952	532	
8	0	0	0	0	952	535	
9	0	0	0	0	952	536	
10	0	0	0	0	952	531	
11	0	0	0	0	952	536	
12	0	0	0	0	952	534	
13	0	0	0	0	952	534	
14	0	0	0	0	952	531	
15	0	0	0	0	952	529	
0	0	0	0	0	952	531	
1	0	0	0	0	952	537	
2	0	0	0	0	952	543	
3	0	0	0	0	952	551	
4	0	0	0	0	952	561	
5	0	0	0	0	952	560	
6	0	0	0	0	952	551	
7	0	0	0	0	952	539	
8	0	0	0	0	952	528	
9	0	0	0	0	952	521	
10	0	0	0	0	952	519	
11	0	0	0	0	952	519	
12	0	0	0	0	952	519	
13	0	0	0	0	952	515	
14	0	0	0	0	952	516	
15	0	0	0	0	952	518	
0	0	0	0	0	952	519	
1	0	0	0	0	952	519	
2	0	0	0	0	952	519	
3	0	0	0	0	952	519	
4	0	0	0	0	952	523	
5	0	0	0	0	952	523	
6	0	0	0	0	952	525	
7	0	0	0	0	952	527	
8	0	0	0	0	952	527	
9	0	0	0	0	952	529	
10	0	0	0	0	951	532	
11	0	0	0	0	951	534	
12	0	0	0	0	951	534	
13	0	0	0	0	951	536	
14	0	0	0	0	951	536	
15	0	0	0	0	951	536	
0	0	0	0	0	951	531	
1	0	0	0	0	951	534	
2	0	0	0	0	951	529	
3	0	0	0	0	951	527	
4	0	0	0	0	951	529	
5	0	0	0	0	950	527	
6	0	0	0	0	950	536	
7	0	0	0	0	950	542	
8	0	0	0	0	950	536	
9	0	0	0	0	950	531	
10	0	0	0	0	950	519	
11	0	0	0	0	950	523	
12	0	0	0	0	950	521	
13	0	0	0	0	950	519	
14	0	0	0	0	950	519	
15	0	0	0	0	950	519	
0	0	0	0	0	950	515	
1	0	0	0	0	950	504	
2	0	0	0	0	950	440	
3	0	0	0	0	950	467	
4	0	0	0	0	949	704	
5	0	0	0	0	949	601	
6	0	0	0	0	949	403	
7	0	0	0	0	948	451	
8	0	0	0	0	948	481	
9	0	0	0	0	948	513	
10	0	0	0	0	948	502	
11	0	0	0	0	948	504	
12	0	0	0	0	948	508	
13	0	0	0	0	948	510	
14	0	0	0	0	948	512	
15	0	0	0	0	948	515	
0	0	0	0	0	948	519	
1	0	0	0	0	948	521	
2	0	0	0	0	948	521	
3	0	0	0	0	948	522	
4	0	0	0	0	948	523	
5	0	0	0	0	947	524	
6	0	0	0	0	947	527	
7	0	0	0	0	947	527	
8	0	0	0	0	947	532	
9	0	0	0	0	947	540	
10	0	0	0	0	947	550	
11	0	0	0	0	947	556	
12	0	0	0	0	947	559	
13	0	0	0	0	947	552	
14	0	0	0	0	947	539	
15	0	0	0	0	947	527	
0	0	0	0	0	947	520	
1	0	0	0	0	947	516	
2	0	0	0	0	947	513	
3	0	0	0	0	947	512	
4	0	0	0	0	947	510	
5	0	0	0	0	947	510	
6	0	0	0	0	947	508	
7	0	0	0	0	947	508	
8	0	0	0	0	947	506	
9	0	0	0	0	947	507	
10	0	0	0	0	947	507	
11	0	0	0	0	947	511	
12	0	0	0	0	947	510	
13	0	0	0	0	947	508	
14	0	0	0	0	947	510	
15	0	0	0	0	947	511	
0	0	0	0	0	947	510	
1	0	0	0	0	947	510	
2	0	0	0	0	947	513	
3	0	0	0	0	947	513	
4	0	0	0	0	947	513	
5	0	0	0	0	947	514	
6	0	0	0	0	947	515	
7	0	0	0	0	946	514	
8	0	0	0	0	946	515	
9	0	0	0	0	946	516	
10	0	0	0	0	946	516	
11	0	0	0	0	946	523	
12	0	0	0	0	946	534	
13	0	0	0	0	946	529	
14	0	0	0	0	946	529	
15	0	0	0	0	946	524	
0	0	0	0	0	946	523	
1	0	0	0	0	946	524	
2	0	0	0	0	946	526	
3	0	0	0	0	945	528	
4	0	0	0	0	945	531	
5	0	0	0	0	945	531	
6	0	0	0	0	945	527	
7	0	0	0	0	945	472	
8	0	0	0	0	945	473	
9	0	0	0	0	946	704	
10	0	0	0	0	946	696	
11	0	0	0	0	946	450	
12	0	0	0	0	946	495	
13	0	0	0	0	946	534	
14	0	0	0	0	946	568	
15	0	0	0	0	946	558	
0	0	0	0	0	946	563	
1	0	0	0	0	947	568	
2	0	0	0	0	947	572	
3	0	0	0	0	947	574	
4	0	0	0	0	947	575	
5	0	0	0	0	947	579	
6	0	0	0	0	947	582	
7	0	0	0	0	947	582	
8	0	0	0	0	947	583	
9	0	0	0	0	947	583	
10	0	0	0	0	947	583	
11	0	0	0	0	947	583	
12	0	0	0	0	947	585	
13	0	0	0	0	947	591	
14	0	0	0	0	947	595	
15	0	0	0	0	947	603	
0	0	0	0	0	948	611	
1	0	0	0	0	948	615	
2	0	0	0	0	948	604	
3	0	0	0	0	948	590	
4	0	0	0	0	948	575	
5	0	0	0	0	948	566	
6	0	0	0	0	949	561	
7	0	0	0	0	950	558	
8	0	0	0	0	950	558	
9	0	0	0	0	950	551	
10	0	0	0	0	950	551	
11	0	0	0	0	950	548	
12	0	0	0	0	950	547	
13	0	0	0	0	950	546	
14	0	0	0	0	950	545	
15	0	0	0	0	951	547	
0	0	0	0	0	951	545	
1	0	0	0	0	951	545	
2	0	0	0	0	951	543	
3	0	0	0	0	952	543	
4	0	0	0	0	952	545	
5	0	0	0	0	952	545	
6	0	0	0	0	952	544	
7	0	0	0	0	952	545	
8	0	0	0	0	952	543	
9	0	0	0	0	952	546	
10	0	0	0	0	952	543	
11	0	0	0	0	952	543	
12	0	0	0	0	952	543	
13	0	0	0	0	952	540	
14	0	0	0	0	952	542	
15	0	0	0	0	952	558	
0	0	0	0	0	952	556	
1	0	0	0	0	952	555	
2	0	0	0	0	952	547	
3	0	0	0	0	952	543	
4	0	0	0	0	952	543	
5	0	0	0	0	952	543	
6	0	0	0	0	952	543	
7	0	0	0	0	952	545	
8	0	0	0	0	952	543	
9	0	0	0	0	952	539	
10	0	0	0	0	952	489	
11	0	0	0	0	952	460	
12	0	0	0	0	952	660	
13	0	0	0	0	952	764	
14	0	0	0	0	952	454	
15	0	0	0	0	952	478	
0	0	0	0	0	952	511	
1	0	0	0	0	952	556	
2	0	0	0	0	952	545	
3	0	0	0	0	952	546	
4	0	0	0	0	952	551	
5	0	0	0	0	952	556	
6	0	0	0	0	952	556	
7	0	0	0	0	952	556	
8	0	0	0	0	952	556	
9	0	0	0	0	952	556	
10	0	0	0	0	952	556	
11	0	0	0	0	952	551	
12	0	0	0	0	952	537	
13	0	0	0	0	952	521	
14	0	0	0	0	952	512	
15	0	0	0	0	952	507	
0	0	0	0	0	952	507	
1	0	0	0	0	952	516	
2	0	0	0	0	952	531	
3	0	0	0	0	952	543	
4	0	0	0	0	952	550	
5	0	0	0	0	952	540	
6	0	0	0	0	952	509	
7	0	0	0	0	952	484	
8	0	0	0	0	952	470	
9	0	0	0	0	952	494	
10	0	0	0	0	952	529	
11	0	0	0	0	952	515	
12	0	0	0	0	952	483	
13	0	0	0	0	952	490	
14	0	0	0	0	952	464	
15	0	0	0	0	952	415	
0	0	0	0	0	952	403	
1	0	0	0	0	952	408	
2	0	0	0	0	952	427	
3	0	0	0	0	952	446	
4	0	0	0	0	952	449	
5	0	0	0	0	952	453	
6	0	0	0	0	952	465	
7	0	0	0	0	952	478	
8	0	0	0	0	952	483	
9	0	0	0	0	952	492	
10	0	0	0	0	952	508	
11	0	0	0	0	952	515	
12	0	0	0	0	952	521	
13	0	0	0	0	952	527	
14	0	0	0	0	952	527	
15	0	0	0	0	952	539	
0	0	0	0	0	952	556	
1	0	0	0	0	952	551	
2	0	0	0	0	952	551	
3	0	0	0	0	952	543	
4	0	0	0	0	952	545	
5	0	0	0	0	952	550	
6	0	0	0	0	952	551	
7	0	0	0	0	952	558	
8	0	0	0	0	952	558	
9	0	0	0	0	952	561	
10	0	0	0	0	952	559	
11	0	0	0	0	952	515	
12	0	0	0	0	952	540	
13	0	0	0	0	952	753	
14	0	0	0	0	952	671	
15	0	0	0	0	952	463	
0	0	0	0	0	952	524	
1	0	0	0	0	952	561	
2	0	0	0	0	952	606	
3	0	0	0	0	952	595	
4	0	0	0	0	952	604	
5	0	0	0	0	952	608	
6	0	0	0	0	952	611	
7	0	0	0	0	952	615	
8	0	0	0	0	952	620	
9	0	0	0	0	952	627	
10	0	0	0	0	952	632	
11	0	0	0	0	952	636	
12	0	0	0	0	952	639	
13	0	0	0	0	952	641	
14	0	0	0	0	952	644	
15	0	0	0	0	952	654	
0	0	0	0	0	952	659	
1	0	0	0	0	952	664	
2	0	0	0	0	952	673	
3	0	0	0	0	952	683	
4	0	0	0	0	952	694	
5	0	0	0	0	952	692	
6	0	0	0	0	952	679	
7	0	0	0	0	951	678	
8	0	0	0	0	951	670	
9	0	0	0	0	951	665	
10	0	0	0	0	951	663	
11	0	0	0	0	951	668	
12	0	0	0	0	951	673	
13	0	0	0	0	951	675	
14	0	0	0	0	951	684	
15	0	0	0	0	951	684	
0	0	0	0	0	950	689	
1	0	0	0	0	950	691	
2	0	0	0	0	950	696	
3	0	0	0	0	950	699	
4	0	0	0	0	950	700	
5	0	0	0	0	950	702	
6	0	0	0	0	950	702	
7	0	0	0	0	950	700	
8	0	0	0	0	950	704	
9	0	0	0	0	950	700	
10	0	0	0	0	950	700	
11	0	0	0	0	950	702	
12	0	0	0	0	950	696	
13	0	0	0	0	950	704	
14	0	0	0	0	950	711	
15	0	0	0	0	950	705	
0	0	0	0	0	950	702	
1	0	0	0	0	950	691	
2	0	0	0	0	949	688	
3	0	0	0	0	949	687	
4	0	0	0	0	948	688	
5	0	0	0	0	948	688	
6	0	0	0	0	948	687	
7	0	0	0	0	948	688	
8	0	0	0	0	948	681	
9	0	0	0	0	948	628	
10	0	0	0	0	948	670	
11	0	0	0	0	948	872	
12	0	0	0	0	948	728	
13	0	0	0	0	948	561	
14	0	0	0	0	948	616	
15	0	0	0	0	948	639	
0	0	0	0	0	948	691	
1	0	0	0	0	948	679	
2	0	0	0	0	948	684	
3	0	0	0	0	947	688	
4	0	0	0	0	947	688	
5	0	0	0	0	947	688	
6	0	0	0	0	947	691	
7	0	0	0	0	947	691	
8	0	0	0	0	947	688	
9	0	0	0	0	947	688	
10	0	0	0	0	947	686	
11	0	0	0	0	947	686	
12	0	0	0	0	947	688	
13	0	0	0	0	947	684	
14	0	0	0	0	947	687	
15	0	0	0	0	947	689	
0	0	0	0	0	947	696	
1	0	0	0	0	947	697	
2	0	0	0	0	947	699	
3	0	0	0	0	947	691	
4	0	0	0	0	947	675	
5	0	0	0	0	947	657	
6	0	0	0	0	947	647	
7	0	0	0	0	947	638	
8	0	0	0	0	947	632	
9	0	0	0	0	947	630	
10	0	0	0	0	947	625	
11	0	0	0	0	947	620	
12	0	0	0	0	947	619	
13	0	0	0	0	947	615	
14	0	0	0	0	947	614	
15	0	0	0	0	947	614	
0	0	0	0	0	947	615	
1	0	0	0	0	948	615	
2	0	0	0	0	948	615	
3	0	0	0	0	948	614	
4	0	0	0	0	948	615	
5	0	0	0	0	948	611	
6	0	0	0	0	948	611	
7	0	0	0	0	948	608	
8	0	0	0	0	948	605	
9	0	0	0	0	948	615	
10	0	0	0	0	948	617	
11	0	0	0	0	949	609	
12	0	0	0	0	949	595	
13	0	0	0	0	950	582	
14	0	0	0	0	950	582	
15	0	0	0	0	950	585	
0	0	0	0	0	950	585	
1	0	0	0	0	950	588	
2	0	0	0	0	950	588	
3	0	0	0	0	950	588	
4	0	0	0	0	950	560	
5	0	0	0	0	950	510	
6	0	0	0	0	950	608	
7	0	0	0	0	951	810	
8	0	0	0	0	951	553	
9	0	0	0	0	951	491	
10	0	0	0	0	951	524	
11	0	0	0	0	951	574	
12	0	0	0	0	951	590	
13	0	0	0	0	952	568	
14	0	0	0	0	952	556	
15	0	0	0	0	952	521	
0	0	0	0	0	952	511	
1	0	0	0	0	952	499	
2	0	0	0	0	952	499	
3	0	0	0	0	952	508	
4	0	0	0	0	952	520	
5	0	0	0	0	952	532	
6	0	0	0	0	952	539	
7	0	0	0	0	952	543	
8	0	0	0	0	952	551	
9	0	0	0	0	952	568	
10	0	0	0	0	952	582	
11	0	0	0	0	952	595	
12	0	0	0	0	952	612	
13	0	0	0	0	952	623	
14	0	0	0	0	952	631	
15	0	0	0	0	952	631	
0	0	0	0	0	952	623	
1	0	0	0	0	952	615	
2	0	0	0	0	952	617	
3	0	0	0	0	952	619	
4	0	0	0	0	952	615	
5	0	0	0	0	952	615	
6	0	0	0	0	952	619	
7	0	0	0	0	952	620	
8	0	0	0	0	952	615	
9	0	0	0	0	952	615	
10	0	0	0	0	952	620	
11	0	0	0	0	952	617	
12	0	0	0	0	952	615	
13	0	0	0	0	952	617	
14	0	0	0	0	952	620	
15	0	0	0	0	952	624	
0	0	0	0	0	952	627	
1	0	0	0	0	952	633	
2	0	0	0	0	952	630	
3	0	0	0	0	952	632	
4	0	0	0	0	952	646	
5	0	0	0	0	952	650	
6	0	0	0	0	952	647	
7	0	0	0	0	952	639	
8	0	0	0	0	952	632	
9	0	0	0	0	952	627	
10	0	0	0	0	952	614	
11	0	0	0	0	952	608	
12	0	0	0	0	952	593	
13	0	0	0	0	952	579	
14	0	0	0	0	952	568	
15	0	0	0	0	952	536	
0	0	0	0	0	952	486	
1	0	0	0	0	952	583	
2	0	0	0	0	952	760	
3	0	0	0	0	952	508	
4	0	0	0	0	952	454	
5	0	0	0	0	952	480	
6	0	0	0	0	952	524	
7	0	0	0	0	952	549	
8	0	0	0	0	952	540	
9	0	0	0	0	952	547	
10	0	0	0	0	952	551	
11	0	0	0	0	952	551	
12	0	0	0	0	952	553	
13	0	0	0	0	952	555	
14	0	0	0	0	952	553	
15	0	0	0	0	952	551	
0	0	0	0	0	952	551	
1	0	0	0	0	952	553	
2	0	0	0	0	952	556	
3	0	0	0	0	952	556	
4	0	0	0	0	952	558	
5	0	0	0	0	952	556	
6	0	0	0	0	952	559	
7	0	0	0	0	952	561	
8	0	0	0	0	952	564	
9	0	0	0	0	952	568	
10	0	0	0	0	952	556	
11	0	0	0	0	952	537	
12	0	0	0	0	952	526	
13	0	0	0	0	952	516	
14	0	0	0	0	952	511	
15	0	0	0	0	952	508	
0	0	0	0	0	952	508	
1	0	0	0	0	952	505	
2	0	0	0	0	952	502	
3	0	0	0	0	952	500	
4	0	0	0	0	952	499	
5	0	0	0	0	952	499	
6	0	0	0	0	952	499	
7	0	0	0	0	952	500	
8	0	0	0	0	952	500	
9	0	0	0	0	952	502	
10	0	0	0	0	952	502	
11	0	0	0	0	952	502	
12	0	0	0	0	952	504	
13	0	0	0	0	952	499	
14	0	0	0	0	952	499	
15	0	0	0	0	952	511	
0	0	0	0	0	952	515	
1	0	0	0	0	952	513	
2	0	0	0	0	952	510	
3	0	0	0	0	952	499	
4	0	0	0	0	952	497	
5	0	0	0	0	952	501	
6	0	0	0	0	952	500	
7	0	0	0	0	952	504	
8	0	0	0	0	952	500	
9	0	0	0	0	952	502	
10	0	0	0	0	952	484	
11	0	0	0	0	952	431	
12	0	0	0	0	952	500	
13	0	0	0	0	952	725	
14	0	0	0	0	952	524	
15	0	0	0	0	952	399	
0	0	0	0	0	952	440	
1	0	0	0	0	952	487	
2	0	0	0	0	952	515	
3	0	0	0	0	952	508	
4	0	0	0	0	952	515	
5	0	0	0	0	952	518	
6	0	0	0	0	952	519	
7	0	0	0	0	952	521	
8	0	0	0	0	952	524	
9	0	0	0	0	952	527	
10	0	0	0	0	952	530	
11	0	0	0	0	952	532	
12	0	0	0	0	952	536	
13	0	0	0	0	952	536	
14	0	0	0	0	952	540	
15	0	0	0	0	952	543	
0	0	0	0	0	952	547	
1	0	0	0	0	952	555	
2	0	0	0	0	952	561	
3	0	0	0	0	952	568	
4	0	0	0	0	952	572	
5	0	0	0	0	952	564	
6	0	0	0	0	952	549	
7	0	0	0	0	952	539	
8	0	0	0	0	952	529	
9	0	0	0	0	952	527	
10	0	0	0	0	952	526	
11	0	0	0	0	952	524	
12	0	0	0	0	952	528	
13	0	0	0	0	952	531	
14	0	0	0	0	952	534	
15	0	0	0	0	952	536	
0	0	0	0	0	952	536	
1	0	0	0	0	952	536	
2	0	0	0	0	952	537	
3	0	0	0	0	952	539	
4	0	0	0	0	952	540	
5	0	0	0	0	952	542	
6	0	0	0	0	953	543	
7	0	0	0	0	953	542	
8	0	0	0	0	953	540	
9	0	0	0	0	953	540	
10	0	0	0	0	953	539	
11	0	0	0	0	953	537	
12	0	0	0	0	953	534	
13	0	0	0	0	953	538	
14	0	0	0	0	953	551	
15	0	0	0	0	953	551	
0	0	0	0	0	953	546	
1	0	0	0	0	952	539	
2	0	0	0	0	953	531	
3	0	0	0	0	953	531	
4	0	0	0	0	953	531	
5	0	0	0	0	953	531	
6	0	0	0	0	953	531	
7	0	0	0	0	953	531	
8	0	0	0	0	953	531	
9	0	0	0	0	953	484	
10	0	0	0	0	953	466	
11	0	0	0	0	953	655	
12	0	0	0	0	953	747	
13	0	0	0	0	953	455	
14	0	0	0	0	953	468	
15	0	0	0	0	953	492	
0	0	0	0	0	953	542	
1	0	0	0	0	953	534	
2	0	0	0	0	953	536	
3	0	0	0	0	953	540	
4	0	0	0	0	953	543	
5	0	0	0	0	953	545	
6	0	0	0	0	953	547	
7	0	0	0	0	953	547	
8	0	0	0	0	953	547	
9	0	0	0	0	953	547	
10	0	0	0	0	953	549	
11	0	0	0	0	953	547	
12	0	0	0	0	953	547	
13	0	0	0	0	953	547	
14	0	0	0	0	953	551	
15	0	0	0	0	953	553	
0	0	0	0	0	953	559	
1	0	0	0	0	953	564	
2	0	0	0	0	953	572	
3	0	0	0	0	953	574	
4	0	0	0	0	953	563	
5	0	0	0	0	953	551	
6	0	0	0	0	953	540	
7	0	0	0	0	953	531	
8	0	0	0	0	953	527	
9	0	0	0	0	953	524	
10	0	0	0	0	953	523	
11	0	0	0	0	953	523	
12	0	0	0	0	953	519	
13	0	0	0	0	953	519	
14	0	0	0	0	953	518	
15	0	0	0	0	953	519	
0	0	0	0	0	953	518	
1	0	0	0	0	953	519	
2	0	0	0	0	953	518	
3	0	0	0	0	953	521	
4	0	0	0	0	953	523	
5	0	0	0	0	953	524	
6	0	0	0	0	953	526	
7	0	0	0	0	953	524	
8	0	0	0	0	953	527	
9	0	0	0	0	953	527	
10	0	0	0	0	953	527	
11	0	0	0	0	953	527	
12	0	0	0	0	953	527	
13	0	0	0	0	953	527	
14	0	0	0	0	953	527	
15	0	0	0	0	953	526	
0	0	0	0	0	953	537	
1	0	0	0	0	953	545	
2	0	0	0	0	953	542	
3	0	0	0	0	953	532	
4	0	0	0	0	953	524	
5	0	0	0	0	953	521	
6	0	0	0	0	953	524	
7	0	0	0	0	953	519	
8	0	0	0	0	953	519	
9	0	0	0	0	953	519	
10	0	0	0	0	953	519	
11	0	0	0	0	953	505	
12	0	0	0	0	953	439	
13	0	0	0	0	953	492	
14	0	0	0	0	953	760	
15	0	0	0	0	953	601	
0	0	0	0	0	953	423	
1	0	0	0	0	953	455	
2	0	0	0	0	953	496	
3	0	0	0	0	953	524	
4	0	0	0	0	953	508	
5	0	0	0	0	952	518	
6	0	0	0	0	952	519	
7	0	0	0	0	952	524	
8	0	0	0	0	952	527	
9	0	0	0	0	952	527	
10	0	0	0	0	952	529	
11	0	0	0	0	952	531	
12	0	0	0	0	952	532	
13	0	0	0	0	952	536	
14	0	0	0	0	952	542	
15	0	0	0	0	952	543	
0	0	0	0	0	952	550	
1	0	0	0	0	952	558	
2	0	0	0	0	952	567	
3	0	0	0	0	952	577	
4	0	0	0	0	952	588	
5	0	0	0	0	952	600	
6	0	0	0	0	952	598	
7	0	0	0	0	952	584	
8	0	0	0	0	952	568	
9	0	0	0	0	952	557	
10	0	0	0	0	952	551	
11	0	0	0	0	952	548	
12	0	0	0	0	952	545	
13	0	0	0	0	952	545	
14	0	0	0	0	952	543	
15	0	0	0	0	952	543	
0	0	0	0	0	952	540	
1	0	0	0	0	952	540	
2	0	0	0	0	952	540	
3	0	0	0	0	952	536	
4	0	0	0	0	952	536	
5	0	0	0	0	952	536	
6	0	0	0	0	952	535	
7	0	0	0	0	952	533	
8	0	0	0	0	952	534	
9	0	0	0	0	952	536	
10	0	0	0	0	952	534	
11	0	0	0	0	952	534	
12	0	0	0	0	952	532	
13	0	0	0	0	952	534	
14	0	0	0	0	952	534	
15	0	0	0	0	952	535	
0	0	0	0	0	952	531	
1	0	0	0	0	952	529	
2	0	0	0	0	952	527	
3	0	0	0	0	952	527	
4	0	0	0	0	952	527	
5	0	0	0	0	952	524	
6	0	0	0	0	952	522	
7	0	0	0	0	952	521	
8	0	0	0	0	952	519	
9	0	0	0	0	952	519	
10	0	0	0	0	952	513	
11	0	0	0	0	952	524	
12	0	0	0	0	952	527	
13	0	0	0	0	952	525	
14	0	0	0	0	952	521	
15	0	0	0	0	952	513	
0	0	0	0	0	952	513	
1	0	0	0	0	952	518	
2	0	0	0	0	952	521	
3	0	0	0	0	952	524	
4	0	0	0	0	952	526	
5	0	0	0	0	952	531	
6	0	0	0	0	952	519	
7	0	0	0	0	952	455	
8	0	0	0	0	952	497	
9	0	0	0	0	952	752	
10	0	0	0	0	952	615	
11	0	0	0	0	951	432	
12	0	0	0	0	952	478	
13	0	0	0	0	951	508	
14	0	0	0	0	952	544	
15	0	0	0	0	951	532	
0	0	0	0	0	951	539	
1	0	0	0	0	951	543	
2	0	0	0	0	951	543	
3	0	0	0	0	951	543	
4	0	0	0	0	951	540	
5	0	0	0	0	951	542	
6	0	0	0	0	951	542	
7	0	0	0	0	951	540	
8	0	0	0	0	951	537	
9	0	0	0	0	951	536	
10	0	0	0	0	951	535	
11	0	0	0	0	951	536	
12	0	0	0	0	951	536	
13	0	0	0	0	951	539	
14	0	0	0	0	951	527	
15	0	0	0	0	951	556	
0	0	0	0	0	951	560	
1	0	0	0	0	951	551	
2	0	0	0	0	951	537	
3	0	0	0	0	951	519	
4	0	0	0	0	951	505	
5	0	0	0	0	951	488	
6	0	0	0	0	951	476	
7	0	0	0	0	951	471	
8	0	0	0	0	951	460	
9	0	0	0	0	951	451	
10	0	0	0	0	951	455	
11	0	0	0	0	951	448	
12	0	0	0	0	951	446	
13	0	0	0	0	951	445	
14	0	0	0	0	951	440	
15	0	0	0	0	951	435	
0	0	0	0	0	951	422	
1	0	0	0	0	951	412	
2	0	0	0	0	951	403	
3	0	0	0	0	951	399	
4	0	0	0	0	951	409	
5	0	0	0	0	951	422	
6	0	0	0	0	951	417	
7	0	0	0	0	951	419	
8	0	0	0	0	951	423	
9	0	0	0	0	951	430	
10	0	0	0	0	951	430	
11	0	0	0	0	951	432	
12	0	0	0	0	951	435	
13	0	0	0	0	951	433	
14	0	0	0	0	951	443	
15	0	0	0	0	951	451	
0	0	0	0	0	951	451	
1	0	0	0	0	951	467	
2	0	0	0	0	951	470	
3	0	0	0	0	951	475	
4	0	0	0	0	951	472	
5	0	0	0	0	951	483	
6	0	0	0	0	951	492	
7	0	0	0	0	951	492	
8	0	0	0	0	951	495	
9	0	0	0	0	951	494	
10	0	0	0	0	951	493	
11	0	0	0	0	951	509	
12	0	0	0	0	951	512	
13	0	0	0	0	951	512	
14	0	0	0	0	951	694	
15	0	0	0	0	951	758	
0	0	0	0	0	951	527	
1	0	0	0	0	951	551	
2	0	0	0	0	951	545	
3	0	0	0	0	951	593	
4	0	0	0	0	951	601	
5	0	0	0	0	951	600	
6	0	0	0	0	951	604	
7	0	0	0	0	951	604	
8	0	0	0	0	951	604	
9	0	0	0	0	951	608	
10	0	0	0	0	951	611	
11	0	0	0	0	951	627	
12	0	0	0	0	951	622	
13	0	0	0	0	951	619	
14	0	0	0	0	951	615	
15	0	0	0	0	950	615	
0	0	0	0	0	950	615	
1	0	0	0	0	950	617	
2	0	0	0	0	950	620	
3	0	0	0	0	950	623	
4	0	0	0	0	950	627	
5	0	0	0	0	950	627	
6	0	0	0	0	950	627	
7	0	0	0	0	950	617	
8	0	0	0	0	950	608	
9	0	0	0	0	950	591	
10	0	0	0	0	950	583	
11	0	0	0	0	950	579	
12	0	0	0	0	950	574	
13	0	0	0	0	950	572	
14	0	0	0	0	950	572	
15	0	0	0	0	950	572	
0	0	0	0	0	950	569	
1	0	0	0	0	950	568	
2	0	0	0	0	950	567	
3	0	0	0	0	950	568	
4	0	0	0	0	950	566	
5	0	0	0	0	950	560	
6	0	0	0	0	950	563	
7	0	0	0	0	950	556	
8	0	0	0	0	950	551	
9	0	0	0	0	950	571	
10	0	0	0	0	950	583	
11	0	0	0	0	950	588	
12	0	0	0	0	950	591	
13	0	0	0	0	950	591	
14	0	0	0	0	950	588	
15	0	0	0	0	950	587	
0	0	0	0	0	950	588	
1	0	0	0	0	950	593	
2	0	0	0	0	950	591	
3	0	0	0	0	950	591	
4	0	0	0	0	950	588	
5	0	0	0	0	950	585	
6	0	0	0	0	950	587	
7	0	0	0	0	950	575	
8	0	0	0	0	950	583	
9	0	0	0	0	950	591	
10	0	0	0	0	950	584	
11	0	0	0	0	950	584	
12	0	0	0	0	949	572	
13	0	0	0	0	949	574	
14	0	0	0	0	949	572	
15	0	0	0	0	949	568	
0	0	0	0	0	949	568	
1	0	0	0	0	948	563	
2	0	0	0	0	948	563	
3	0	0	0	0	948	551	
4	0	0	0	0	948	492	
5	0	0	0	0	948	524	
6	0	0	0	0	948	755	
7	0	0	0	0	948	668	
8	0	0	0	0	948	494	
9	0	0	0	0	948	523	
10	0	0	0	0	948	529	
11	0	0	0	0	948	559	
12	0	0	0	0	948	545	
13	0	0	0	0	948	550	
14	0	0	0	0	948	551	
15	0	0	0	0	948	551	
0	0	0	0	0	948	551	
1	0	0	0	0	948	553	
2	0	0	0	0	948	543	
3	0	0	0	0	948	548	
4	0	0	0	0	948	551	
5	0	0	0	0	948	548	
6	0	0	0	0	948	547	
7	0	0	0	0	948	548	
8	0	0	0	0	948	550	
9	0	0	0	0	948	550	
10	0	0	0	0	948	556	
11	0	0	0	0	948	560	
12	0	0	0	0	948	567	
13	0	0	0	0	948	572	
14	0	0	0	0	948	574	
15	0	0	0	0	948	566	
0	0	0	0	0	948	551	
1	0	0	0	0	948	543	
2	0	0	0	0	948	535	
3	0	0	0	0	948	532	
4	0	0	0	0	948	531	
5	0	0	0	0	948	527	
6	0	0	0	0	948	527	
7	0	0	0	0	948	524	
8	0	0	0	0	948	523	
9	0	0	0	0	948	524	
10	0	0	0	0	948	524	
11	0	0	0	0	948	524	
12	0	0	0	0	948	519	
13	0	0	0	0	948	519	
14	0	0	0	0	948	523	
15	0	0	0	0	948	524	
0	0	0	0	0	948	519	
1	0	0	0	0	948	520	
2	0	0	0	0	948	519	
3	0	0	0	0	948	519	
4	0	0	0	0	948	527	
5	0	0	0	0	948	531	
6	0	0	0	0	948	528	
7	0	0	0	0	948	531	
8	0	0	0	0	948	532	
9	0	0	0	0	948	534	
10	0	0	0	0	948	534	
11	0	0	0	0	948	531	
12	0	0	0	0	948	536	
13	0	0	0	0	948	531	
14	0	0	0	0	948	528	
15	0	0	0	0	948	532	
0	0	0	0	0	948	531	
1	0	0	0	0	948	531	
2	0	0	0	0	948	529	
3	0	0	0	0	948	540	
4	0	0	0	0	948	536	
5	0	0	0	0	948	536	
6	0	0	0	0	949	534	
7	0	0	0	0	949	523	
8	0	0	0	0	949	524	
9	0	0	0	0	950	528	
10	0	0	0	0	950	536	
11	0	0	0	0	950	526	
12	0	0	0	0	950	528	
13	0	0	0	0	950	531	
14	0	0	0	0	950	498	
15	0	0	0	0	950	451	
0	0	0	0	0	950	568	
1	0	0	0	0	950	780	
2	0	0	0	0	950	540	
3	0	0	0	0	951	483	
4	0	0	0	0	951	502	
5	0	0	0	0	951	543	
6	0	0	0	0	951	540	
7	0	0	0	0	951	534	
8	0	0	0	0	952	542	
9	0	0	0	0	952	539	
10	0	0	0	0	952	543	
11	0	0	0	0	952	543	
12	0	0	0	0	952	543	
13	0	0	0	0	952	545	
14	0	0	0	0	952	548	
15	0	0	0	0	952	547	
0	0	0	0	0	952	543	
1	0	0	0	0	952	547	
2	0	0	0	0	952	545	
3	0	0	0	0	952	545	
4	0	0	0	0	952	550	
5	0	0	0	0	952	553	
6	0	0	0	0	952	561	
7	0	0	0	0	952	571	
8	0	0	0	0	952	574	
9	0	0	0	0	952	572	
10	0	0	0	0	952	560	
11	0	0	0	0	952	544	
12	0	0	0	0	952	532	
13	0	0	0	0	952	523	
14	0	0	0	0	953	515	
15	0	0	0	0	953	505	
0	0	0	0	0	953	504	
1	0	0	0	0	953	503	
2	0	0	0	0	953	499	
3	0	0	0	0	953	499	
4	0	0	0	0	953	499	
5	0	0	0	0	953	497	
6	0	0	0	0	953	496	
7	0	0	0	0	953	496	
8	0	0	0	0	953	495	
9	0	0	0	0	953	496	
10	0	0	0	0	953	497	
11	0	0	0	0	953	499	
12	0	0	0	0	953	500	
13	0	0	0	0	953	500	
14	0	0	0	0	953	504	
15	0	0	0	0	954	499	
0	0	0	0	0	953	499	
1	0	0	0	0	954	499	
2	0	0	0	0	954	499	
3	0	0	0	0	954	499	
4	0	0	0	0	954	499	
5	0	0	0	0	954	499	
6	0	0	0	0	954	499	
7	0	0	0	0	954	496	
8	0	0	0	0	954	496	
9	0	0	0	0	954	495	
10	0	0	0	0	955	496	
11	0	0	0	0	955	496	
12	0	0	0	0	955	497	
13	0	0	0	0	955	496	
14	0	0	0	0	955	497	
15	0	0	0	0	955	511	
0	0	0	0	0	955	511	
1	0	0	0	0	955	509	
2	0	0	0	0	955	504	
3	0	0	0	0	955	496	
4	0	0	0	0	955	499	
5	0	0	0	0	955	499	
6	0	0	0	0	955	498	
7	0	0	0	0	955	498	
8	0	0	0	0	955	499	
9	0	0	0	0	955	496	
10	0	0	0	0	955	459	
11	0	0	0	0	955	408	
12	0	0	0	0	955	556	
13	0	0	0	0	955	747	
14	0	0	0	0	955	454	
15	0	0	0	0	955	428	
0	0	0	0	0	955	452	
1	0	0	0	0	955	502	
2	0	0	0	0	955	498	
3	0	0	0	0	955	499	
4	0	0	0	0	955	499	
5	0	0	0	0	955	499	
6	0	0	0	0	955	501	
7	0	0	0	0	954	504	
8	0	0	0	0	954	505	
9	0	0	0	0	954	508	
10	0	0	0	0	954	511	
11	0	0	0	0	954	508	
12	0	0	0	0	954	505	
13	0	0	0	0	954	504	
14	0	0	0	0	954	511	
15	0	0	0	0	954	511	
0	0	0	0	0	954	513	
1	0	0	0	0	954	519	
2	0	0	0	0	954	526	
3	0	0	0	0	953	534	
4	0	0	0	0	953	543	
5	0	0	0	0	953	543	
6	0	0	0	0	953	531	
7	0	0	0	0	953	519	
8	0	0	0	0	953	511	
9	0	0	0	0	953	504	
10	0	0	0	0	953	499	
11	0	0	0	0	953	497	
12	0	0	0	0	953	497	
13	0	0	0	0	953	497	
14	0	0	0	0	953	496	
15	0	0	0	0	953	496	
0	0	0	0	0	953	496	
1	0	0	0	0	953	494	
2	0	0	0	0	953	496	
3	0	0	0	0	953	494	
4	0	0	0	0	953	496	
5	0	0	0	0	953	496	
6	0	0	0	0	953	499	
7	0	0	0	0	953	499	
8	0	0	0	0	953	503	
9	0	0	0	0	953	503	
10	0	0	0	0	953	502	
11	0	0	0	0	953	504	
12	0	0	0	0	953	504	
13	0	0	0	0	953	505	
14	0	0	0	0	953	505	
15	0	0	0	0	953	507	
0	0	0	0	0	953	507	
1	0	0	0	0	953	505	
2	0	0	0	0	953	507	
3	0	0	0	0	952	507	
4	0	0	0	0	952	507	
5	0	0	0	0	952	507	
6	0	0	0	0	952	510	
7	0	0	0	0	952	505	
8	0	0	0	0	952	507	
9	0	0	0	0	952	504	
10	0	0	0	0	952	511	
11	0	0	0	0	952	523	
12	0	0	0	0	952	518	
13	0	0	0	0	952	516	
14	0	0	0	0	952	510	
15	0	0	0	0	952	505	
0	0	0	0	0	952	508	
1	0	0	0	0	952	508	
2	0	0	0	0	952	507	
3	0	0	0	0	952	507	
4	0	0	0	0	952	508	
5	0	0	0	0	952	502	
6	0	0	0	0	952	446	
7	0	0	0	0	952	440	
8	0	0	0	0	952	660	
9	0	0	0	0	952	675	
10	0	0	0	0	952	414	
11	0	0	0	0	952	448	
12	0	0	0	0	952	473	
13	0	0	0	0	952	519	
14	0	0	0	0	952	504	
15	0	0	0	0	952	508	
0	0	0	0	0	952	511	
1	0	0	0	0	952	512	
2	0	0	0	0	952	513	
3	0	0	0	0	952	515	
4	0	0	0	0	952	515	
5	0	0	0	0	952	515	
6	0	0	0	0	952	515	
7	0	0	0	0	952	517	
8	0	0	0	0	952	515	
9	0	0	0	0	952	513	
10	0	0	0	0	952	515	
11	0	0	0	0	952	515	
12	0	0	0	0	952	519	
13	0	0	0	0	952	526	
14	0	0	0	0	952	535	
15	0	0	0	0	952	543	
0	0	0	0	0	952	551	
1	0	0	0	0	952	547	
2	0	0	0	0	952	536	
3	0	0	0	0	952	524	
4	0	0	0	0	952	513	
5	0	0	0	0	952	509	
6	0	0	0	0	952	507	
7	0	0	0	0	952	504	
8	0	0	0	0	952	504	
9	0	0	0	0	952	504	
10	0	0	0	0	952	503	
11	0	0	0	0	952	502	
12	0	0	0	0	952	501	
13	0	0	0	0	952	500	
14	0	0	0	0	952	499	
15	0	0	0	0	952	504	
0	0	0	0	0	952	500	
1	0	0	0	0	952	502	
2	0	0	0	0	952	504	
3	0	0	0	0	952	504	
4	0	0	0	0	952	505	
5	0	0	0	0	952	505	
6	0	0	0	0	952	505	
7	0	0	0	0	952	505	
8	0	0	0	0	952	507	
9	0	0	0	0	952	507	
10	0	0	0	0	952	507	
11	0	0	0	0	952	508	
12	0	0	0	0	952	508	
13	0	0	0	0	952	508	
14	0	0	0	0	952	510	
15	0	0	0	0	952	508	
0	0	0	0	0	952	508	
1	0	0	0	0	952	510	
2	0	0	0	0	952	508	
3	0	0	0	0	952	516	
4	0	0	0	0	952	526	
5	0	0	0	0	952	519	
6	0	0	0	0	952	519	
7	0	0	0	0	952	511	
8	0	0	0	0	952	511	
9	0	0	0	0	952	511	
10	0	0	0	0	953	512	
11	0	0	0	0	953	511	
12	0	0	0	0	953	513	
13	0	0	0	0	953	515	
14	0	0	0	0	953	499	
15	0	0	0	0	953	444	
0	0	0	0	0	953	495	
1	0	0	0	0	953	713	
2	0	0	0	0	953	551	
3	0	0	0	0	954	412	
4	0	0	0	0	955	457	
5	0	0	0	0	955	487	
6	0	0	0	0	955	525	
7	0	0	0	0	955	512	
8	0	0	0	0	955	519	
9	0	0	0	0	955	521	
10	0	0	0	0	955	521	
11	0	0	0	0	955	523	
12	0	0	0	0	956	525	
13	0	0	0	0	956	527	
14	0	0	0	0	956	527	
15	0	0	0	0	956	527	
0	0	0	0	0	956	526	
1	0	0	0	0	956	527	
2	0	0	0	0	956	527	
3	0	0	0	0	956	527	
4	0	0	0	0	956	531	
5	0	0	0	0	956	539	
6	0	0	0	0	956	543	
7	0	0	0	0	956	551	
8	0	0	0	0	956	558	
9	0	0	0	0	956	559	
10	0	0	0	0	956	550	
11	0	0	0	0	956	536	
12	0	0	0	0	956	524	
13	0	0	0	0	956	515	
14	0	0	0	0	956	512	
15	0	0	0	0	956	510	
0	0	0	0	0	956	508	
1	0	0	0	0	957	508	
2	0	0	0	0	957	507	
3	0	0	0	0	957	505	
4	0	0	0	0	957	505	
5	0	0	0	0	957	505	
6	0	0	0	0	957	505	
7	0	0	0	0	957	507	
8	0	0	0	0	957	508	
9	0	0	0	0	957	510	
10	0	0	0	0	957	508	
11	0	0	0	0	957	510	
12	0	0	0	0	957	508	
13	0	0	0	0	957	508	
14	0	0	0	0	957	508	
15	0	0	0	0	957	510	
0	0	0	0	0	958	511	
1	0	0	0	0	957	510	
2	0	0	0	0	958	513	
3	0	0	0	0	958	513	
4	0	0	0	0	958	511	
5	0	0	0	0	958	511	
6	0	0	0	0	958	511	
7	0	0	0	0	958	512	
8	0	0	0	0	958	511	
9	0	0	0	0	958	510	
10	0	0	0	0	958	508	
11	0	0	0	0	958	519	
12	0	0	0	0	958	524	
13	0	0	0	0	958	519	
14	0	0	0	0	957	519	
15	0	0	0	0	958	508	
0	0	0	0	0	958	508	
1	0	0	0	0	957	510	
2	0	0	0	0	957	508	
3	0	0	0	0	957	510	
4	0	0	0	0	957	508	
5	0	0	0	0	957	511	
6	0	0	0	0	957	484	
7	0	0	0	0	957	430	
8	0	0	0	0	957	519	
9	0	0	0	0	957	743	
10	0	0	0	0	957	518	
11	0	0	0	0	957	433	
12	0	0	0	0	957	465	
13	0	0	0	0	957	508	
14	0	0	0	0	957	515	
15	0	0	0	0	957	507	
0	0	0	0	0	957	511	
1	0	0	0	0	957	513	
2	0	0	0	0	957	514	
3	0	0	0	0	957	515	
4	0	0	0	0	957	519	
5	0	0	0	0	957	518	
6	0	0	0	0	957	518	
7	0	0	0	0	957	519	
8	0	0	0	0	956	515	
9	0	0	0	0	956	515	
10	0	0	0	0	956	515	
11	0	0	0	0	956	513	
12	0	0	0	0	956	515	
13	0	0	0	0	956	524	
14	0	0	0	0	956	528	
15	0	0	0	0	956	537	
0	0	0	0	0	956	547	
1	0	0	0	0	956	549	
2	0	0	0	0	956	540	
3	0	0	0	0	956	527	
4	0	0	0	0	956	519	
5	0	0	0	0	956	511	
6	0	0	0	0	956	508	
7	0	0	0	0	956	505	
8	0	0	0	0	956	505	
9	0	0	0	0	956	505	
10	0	0	0	0	956	505	
11	0	0	0	0	956	504	
12	0	0	0	0	956	507	
13	0	0	0	0	956	505	
14	0	0	0	0	956	505	
15	0	0	0	0	956	504	
0	0	0	0	0	956	507	
1	0	0	0	0	956	508	
2	0	0	0	0	956	508	
3	0	0	0	0	956	510	
4	0	0	0	0	956	510	
5	0	0	0	0	956	511	
6	0	0	0	0	956	512	
7	0	0	0	0	956	512	
8	0	0	0	0	956	512	
9	0	0	0	0	956	513	
10	0	0	0	0	956	512	
11	0	0	0	0	956	513	
12	0	0	0	0	956	512	
13	0	0	0	0	956	512	
14	0	0	0	0	956	512	
15	0	0	0	0	956	513	
0	0	0	0	0	956	512	
1	0	0	0	0	955	511	
2	0	0	0	0	955	524	
3	0	0	0	0	955	526	
4	0	0	0	0	955	524	
5	0	0	0	0	955	522	
6	0	0	0	0	955	512	
7	0	0	0	0	955	515	
8	0	0	0	0	955	513	
9	0	0	0	0	955	512	
10	0	0	0	0	955	513	
11	0	0	0	0	955	515	
12	0	0	0	0	955	514	
13	0	0	0	0	955	483	
14	0	0	0	0	955	432	
15	0	0	0	0	955	542	
0	0	0	0	0	955	759	
1	0	0	0	0	955	511	
2	0	0	0	0	954	451	
3	0	0	0	0	954	479	
4	0	0	0	0	954	518	
5	0	0	0	0	954	515	
6	0	0	0	0	953	512	
7	0	0	0	0	953	518	
8	0	0	0	0	953	519	
9	0	0	0	0	953	519	
10	0	0	0	0	953	519	
11	0	0	0	0	953	523	
12	0	0	0	0	953	521	
13	0	0	0	0	953	523	
14	0	0	0	0	953	521	
15	0	0	0	0	953	521	
0	0	0	0	0	953	521	
1	0	0	0	0	953	519	
2	0	0	0	0	953	521	
3	0	0	0	0	953	521	
4	0	0	0	0	953	527	
5	0	0	0	0	953	534	
6	0	0	0	0	953	543	
7	0	0	0	0	953	552	
8	0	0	0	0	953	551	
9	0	0	0	0	953	545	
10	0	0	0	0	952	534	
11	0	0	0	0	952	523	
12	0	0	0	0	952	519	
13	0	0	0	0	952	513	
14	0	0	0	0	952	514	
15	0	0	0	0	952	514	
0	0	0	0	0	952	513	
1	0	0	0	0	952	512	
2	0	0	0	0	952	511	
3	0	0	0	0	952	508	
4	0	0	0	0	952	508	
5	0	0	0	0	952	510	
6	0	0	0	0	952	510	
7	0	0	0	0	952	512	
8	0	0	0	0	952	513	
9	0	0	0	0	952	513	
10	0	0	0	0	952	515	
11	0	0	0	0	952	515	
12	0	0	0	0	952	518	
13	0	0	0	0	952	519	
14	0	0	0	0	952	519	
15	0	0	0	0	952	518	
0	0	0	0	0	952	518	
1	0	0	0	0	952	518	
2	0	0	0	0	952	518	
3	0	0	0	0	952	519	
4	0	0	0	0	952	521	
5	0	0	0	0	952	520	
6	0	0	0	0	952	524	
7	0	0	0	0	952	521	
8	0	0	0	0	952	520	
9	0	0	0	0	952	536	
10	0	0	0	0	952	536	
11	0	0	0	0	952	537	
12	0	0	0	0	952	531	
13	0	0	0	0	952	524	
14	0	0	0	0	952	527	
15	0	0	0	0	952	526	
0	0	0	0	0	952	524	
1	0	0	0	0	952	524	
2	0	0	0	0	952	524	
3	0	0	0	0	952	523	
4	0	0	0	0	952	476	
5	0	0	0	0	952	448	
6	0	0	0	0	952	628	
7	0	0	0	0	952	745	
8	0	0	0	0	952	460	
9	0	0	0	0	952	472	
10	0	0	0	0	952	497	
11	0	0	0	0	952	538	
12	0	0	0	0	952	526	
13	0	0	0	0	952	526	
14	0	0	0	0	952	526	
15	0	0	0	0	952	530	
0	0	0	0	0	952	531	
1	0	0	0	0	952	537	
2	0	0	0	0	952	540	
3	0	0	0	0	952	543	
4	0	0	0	0	952	545	
5	0	0	0	0	952	543	
6	0	0	0	0	952	543	
7	0	0	0	0	952	540	
8	0	0	0	0	951	539	
9	0	0	0	0	951	540	
10	0	0	0	0	951	542	
11	0	0	0	0	951	548	
12	0	0	0	0	951	556	
13	0	0	0	0	951	567	
14	0	0	0	0	951	572	
15	0	0	0	0	951	568	
0	0	0	0	0	951	555	
1	0	0	0	0	951	543	
2	0	0	0	0	951	532	
3	0	0	0	0	951	526	
4	0	0	0	0	951	523	
5	0	0	0	0	951	519	
6	0	0	0	0	951	519	
7	0	0	0	0	951	514	
8	0	0	0	0	951	513	
9	0	0	0	0	951	512	
10	0	0	0	0	951	511	
11	0	0	0	0	951	512	
12	0	0	0	0	951	513	
13	0	0	0	0	951	513	
14	0	0	0	0	951	513	
15	0	0	0	0	951	514	
0	0	0	0	0	950	515	
1	0	0	0	0	951	512	
2	0	0	0	0	950	492	
3	0	0	0	0	950	512	
4	0	0	0	0	950	519	
5	0	0	0	0	950	527	
6	0	0	0	0	950	527	
7	0	0	0	0	950	519	
8	0	0	0	0	950	521	
9	0	0	0	0	950	523	
10	0	0	0	0	950	519	
11	0	0	0	0	950	524	
12	0	0	0	0	950	519	
13	0	0	0	0	950	523	
14	0	0	0	0	950	537	
15	0	0	0	0	950	536	
0	0	0	0	0	950	536	
1	0	0	0	0	950	531	
2	0	0	0	0	950	526	
3	0	0	0	0	950	529	
4	0	0	0	0	950	529	
5	0	0	0	0	950	531	
6	0	0	0	0	950	531	
7	0	0	0	0	950	533	
8	0	0	0	0	950	532	
9	0	0	0	0	950	483	
10	0	0	0	0	950	476	
11	0	0	0	0	950	671	
12	0	0	0	0	950	686	
13	0	0	0	0	950	423	
14	0	0	0	0	950	472	
15	0	0	0	0	950	499	
0	0	0	0	0	950	543	
1	0	0	0	0	950	529	
2	0	0	0	0	950	534	
3	0	0	0	0	950	537	
4	0	0	0	0	950	537	
5	0	0	0	0	950	539	
6	0	0	0	0	950	537	
7	0	0	0	0	950	537	
8	0	0	0	0	950	536	
9	0	0	0	0	950	539	
10	0	0	0	0	950	537	
11	0	0	0	0	950	536	
12	0	0	0	0	950	536	
13	0	0	0	0	950	535	
14	0	0	0	0	950	536	
15	0	0	0	0	950	540	
0	0	0	0	0	950	543	
1	0	0	0	0	950	551	
2	0	0	0	0	950	560	
3	0	0	0	0	950	563	
4	0	0	0	0	950	560	
5	0	0	0	0	950	543	
6	0	0	0	0	950	531	
7	0	0	0	0	950	523	
8	0	0	0	0	950	516	
9	0	0	0	0	950	515	
10	0	0	0	0	950	511	
11	0	0	0	0	950	511	
12	0	0	0	0	950	511	
13	0	0	0	0	950	509	
14	0	0	0	0	950	508	
15	0	0	0	0	950	509	
0	0	0	0	0	950	511	
1	0	0	0	0	950	513	
2	0	0	0	0	950	515	
3	0	0	0	0	951	515	
4	0	0	0	0	951	518	
5	0	0	0	0	951	519	
6	0	0	0	0	951	519	
7	0	0	0	0	951	521	
8	0	0	0	0	951	521	
9	0	0	0	0	951	520	
10	0	0	0	0	951	521	
11	0	0	0	0	952	519	
12	0	0	0	0	952	520	
13	0	0	0	0	952	515	
14	0	0	0	0	952	516	
15	0	0	0	0	952	532	
0	0	0	0	0	952	531	
1	0	0	0	0	952	529	
2	0	0	0	0	952	521	
3	0	0	0	0	952	513	
4	0	0	0	0	952	518	
5	0	0	0	0	952	516	
6	0	0	0	0	952	515	
7	0	0	0	0	952	516	
8	0	0	0	0	952	515	
9	0	0	0	0	952	516	
10	0	0	0	0	952	488	
11	0	0	0	0	952	451	
12	0	0	0	0	952	568	
13	0	0	0	0	953	711	
14	0	0	0	0	953	440	
15	0	0	0	0	953	428	
0	0	0	0	0	953	457	
1	0	0	0	0	953	508	
2	0	0	0	0	953	527	
3	0	0	0	0	953	519	
4	0	0	0	0	953	526	
5	0	0	0	0	953	527	
6	0	0	0	0	953	527	
7	0	0	0	0	954	527	
8	0	0	0	0	955	527	
9	0	0	0	0	955	529	
10	0	0	0	0	955	529	
11	0	0	0	0	955	527	
12	0	0	0	0	955	525	
13	0	0	0	0	955	526	
14	0	0	0	0	955	526	
15	0	0	0	0	955	526	
0	0	0	0	0	955	531	
1	0	0	0	0	955	536	
2	0	0	0	0	956	540	
3	0	0	0	0	956	547	
4	0	0	0	0	956	548	
5	0	0	0	0	956	539	
6	0	0	0	0	956	523	
7	0	0	0	0	956	507	
8	0	0	0	0	956	496	
9	0	0	0	0	956	487	
10	0	0	0	0	956	487	
11	0	0	0	0	956	484	
12	0	0	0	0	956	486	
13	0	0	0	0	956	486	
14	0	0	0	0	956	483	
15	0	0	0	0	956	483	
0	0	0	0	0	956	483	
1	0	0	0	0	956	487	
2	0	0	0	0	956	493	
3	0	0	0	0	956	496	
4	0	0	0	0	956	496	
5	0	0	0	0	956	497	
6	0	0	0	0	956	499	
7	0	0	0	0	956	499	
8	0	0	0	0	956	499	
9	0	0	0	0	956	499	
10	0	0	0	0	956	499	
11	0	0	0	0	956	499	
12	0	0	0	0	956	492	
13	0	0	0	0	956	497	
14	0	0	0	0	956	511	
15	0	0	0	0	956	508	
0	0	0	0	0	956	505	
1	0	0	0	0	956	499	
2	0	0	0	0	956	495	
3	0	0	0	0	956	499	
4	0	0	0	0	956	499	
5	0	0	0	0	956	499	
6	0	0	0	0	956	504	
7	0	0	0	0	956	503	
8	0	0	0	0	956	505	
9	0	0	0	0	956	463	
10	0	0	0	0	956	433	
11	0	0	0	0	956	588	
12	0	0	0	0	956	699	
13	0	0	0	0	956	425	
14	0	0	0	0	956	438	
15	0	0	0	0	956	462	
0	0	0	0	0	956	519	
1	0	0	0	0	956	523	
2	0	0	0	0	956	521	
3	0	0	0	0	956	527	
4	0	0	0	0	956	531	
5	0	0	0	0	956	536	
6	0	0	0	0	956	537	
7	0	0	0	0	956	540	
8	0	0	0	0	956	540	
9	0	0	0	0	956	542	
10	0	0	0	0	956	542	
11	0	0	0	0	956	541	
12	0	0	0	0	956	540	
13	0	0	0	0	956	540	
14	0	0	0	0	956	542	
15	0	0	0	0	956	543	
0	0	0	0	0	956	551	
1	0	0	0	0	956	558	
2	0	0	0	0	956	568	
3	0	0	0	0	956	572	
4	0	0	0	0	956	563	
5	0	0	0	0	955	550	
6	0	0	0	0	955	537	
7	0	0	0	0	955	527	
8	0	0	0	0	955	519	
9	0	0	0	0	955	518	
10	0	0	0	0	955	515	
11	0	0	0	0	955	512	
12	0	0	0	0	955	511	
13	0	0	0	0	955	508	
14	0	0	0	0	955	508	
15	0	0	0	0	955	508	
0	0	0	0	0	955	508	
1	0	0	0	0	955	511	
2	0	0	0	0	955	510	
3	0	0	0	0	955	511	
4	0	0	0	0	955	508	
5	0	0	0	0	955	507	
6	0	0	0	0	955	510	
7	0	0	0	0	955	511	
8	0	0	0	0	955	504	
9	0	0	0	0	955	505	
10	0	0	0	0	955	504	
11	0	0	0	0	955	512	
12	0	0	0	0	954	519	
13	0	0	0	0	954	516	
14	0	0	0	0	954	510	
15	0	0	0	0	954	496	
0	0	0	0	0	954	492	
1	0	0	0	0	954	492	
2	0	0	0	0	953	487	
3	0	0	0	0	953	480	
4	0	0	0	0	953	476	
5	0	0	0	0	953	470	
6	0	0	0	0	953	457	
7	0	0	0	0	953	396	
8	0	0	0	0	953	414	
9	0	0	0	0	953	627	
10	0	0	0	0	953	523	
11	0	0	0	0	953	331	
12	0	0	0	0	953	382	
13	0	0	0	0	953	415	
14	0	0	0	0	953	463	
15	0	0	0	0	953	450	
0	0	0	0	0	953	455	
1	0	0	0	0	953	460	
2	0	0	0	0	953	460	
3	0	0	0	0	953	463	
4	0	0	0	0	953	468	
5	0	0	0	0	953	470	
6	0	0	0	0	953	472	
7	0	0	0	0	953	476	
8	0	0	0	0	953	479	
9	0	0	0	0	952	480	
10	0	0	0	0	952	483	
11	0	0	0	0	952	484	
12	0	0	0	0	952	487	
13	0	0	0	0	952	496	
14	0	0	0	0	952	504	
15	0	0	0	0	952	513	
0	0	0	0	0	952	524	
1	0	0	0	0	952	521	
2	0	0	0	0	952	512	
3	0	0	0	0	952	497	
4	0	0	0	0	952	483	
5	0	0	0	0	952	476	
6	0	0	0	0	952	472	
7	0	0	0	0	952	459	
8	0	0	0	0	952	457	
9	0	0	0	0	952	472	
10	0	0	0	0	952	473	
11	0	0	0	0	952	477	
12	0	0	0	0	952	480	
13	0	0	0	0	952	484	
14	0	0	0	0	952	489	
15	0	0	0	0	952	494	
0	0	0	0	0	952	496	
1	0	0	0	0	952	498	
2	0	0	0	0	952	500	
3	0	0	0	0	952	503	
4	0	0	0	0	952	502	
5	0	0	0	0	952	502	
6	0	0	0	0	952	506	
7	0	0	0	0	952	504	
8	0	0	0	0	952	504	
9	0	0	0	0	952	520	
10	0	0	0	0	952	527	
11	0	0	0	0	952	525	
12	0	0	0	0	952	519	
13	0	0	0	0	952	511	
14	0	0	0	0	952	512	
15	0	0	0	0	952	514	
0	0	0	0	0	952	515	
1	0	0	0	0	952	515	
2	0	0	0	0	952	515	
3	0	0	0	0	952	515	
4	0	0	0	0	952	492	
5	0	0	0	0	952	443	
6	0	0	0	0	952	543	
7	0	0	0	0	952	758	
8	0	0	0	0	952	510	
9	0	0	0	0	952	440	
10	0	0	0	0	952	475	
11	0	0	0	0	951	520	
12	0	0	0	0	951	527	
13	0	0	0	0	951	521	
14	0	0	0	0	951	527	
15	0	0	0	0	951	529	
0	0	0	0	0	951	531	
1	0	0	0	0	951	535	
2	0	0	0	0	951	536	
3	0	0	0	0	951	536	
4	0	0	0	0	951	536	
5	0	0	0	0	951	537	
6	0	0	0	0	951	537	
7	0	0	0	0	951	537	
8	0	0	0	0	951	537	
9	0	0	0	0	951	540	
10	0	0	0	0	951	543	
11	0	0	0	0	951	550	
12	0	0	0	0	951	556	
13	0	0	0	0	951	563	
14	0	0	0	0	951	569	
15	0	0	0	0	950	566	
0	0	0	0	0	950	555	
1	0	0	0	0	950	543	
2	0	0	0	0	950	536	
3	0	0	0	0	950	529	
4	0	0	0	0	950	527	
5	0	0	0	0	950	526	
6	0	0	0	0	950	526	
7	0	0	0	0	950	524	
8	0	0	0	0	950	523	
9	0	0	0	0	950	524	
10	0	0	0	0	950	524	
11	0	0	0	0	950	524	
12	0	0	0	0	950	524	
13	0	0	0	0	950	526	
14	0	0	0	0	950	527	
15	0	0	0	0	950	527	
0	0	0	0	0	950	528	
1	0	0	0	0	950	531	
2	0	0	0	0	950	532	
3	0	0	0	0	950	534	
4	0	0	0	0	950	535	
5	0	0	0	0	950	536	
6	0	0	0	0	950	531	
7	0	0	0	0	950	539	
8	0	0	0	0	950	550	
9	0	0	0	0	950	553	
10	0	0	0	0	950	551	
11	0	0	0	0	950	540	
12	0	0	0	0	950	534	
13	0	0	0	0	950	536	
14	0	0	0	0	950	536	
15	0	0	0	0	950	536	
0	0	0	0	0	950	536	
1	0	0	0	0	950	534	
2	0	0	0	0	950	536	
3	0	0	0	0	950	499	
4	0	0	0	0	950	459	
5	0	0	0	0	950	601	
6	0	0	0	0	950	779	
7	0	0	0	0	950	489	
8	0	0	0	0	950	470	
9	0	0	0	0	950	500	
10	0	0	0	0	950	545	
11	0	0	0	0	950	539	
12	0	0	0	0	950	540	
13	0	0	0	0	950	545	
14	0	0	0	0	950	545	
15	0	0	0	0	950	547	
0	0	0	0	0	950	548	
1	0	0	0	0	950	550	
2	0	0	0	0	950	551	
3	0	0	0	0	950	551	
4	0	0	0	0	950	551	
5	0	0	0	0	950	551	
6	0	0	0	0	950	551	
7	0	0	0	0	950	551	
8	0	0	0	0	950	551	
9	0	0	0	0	950	553	
10	0	0	0	0	950	560	
11	0	0	0	0	950	568	
12	0	0	0	0	950	574	
13	0	0	0	0	950	577	
14	0	0	0	0	950	572	
15	0	0	0	0	950	563	
0	0	0	0	0	950	550	
1	0	0	0	0	950	543	
2	0	0	0	0	950	537	
3	0	0	0	0	951	536	
4	0	0	0	0	951	536	
5	0	0	0	0	951	536	
6	0	0	0	0	951	536	
7	0	0	0	0	951	532	
8	0	0	0	0	951	532	
9	0	0	0	0	951	531	
10	0	0	0	0	951	534	
11	0	0	0	0	951	535	
12	0	0	0	0	951	534	
13	0	0	0	0	951	536	
14	0	0	0	0	951	536	
15	0	0	0	0	951	536	
0	0	0	0	0	951	536	
1	0	0	0	0	951	537	
2	0	0	0	0	951	536	
3	0	0	0	0	951	536	
4	0	0	0	0	951	536	
5	0	0	0	0	951	536	
6	0	0	0	0	951	536	
7	0	0	0	0	951	537	
8	0	0	0	0	951	535	
9	0	0	0	0	951	540	
10	0	0	0	0	951	553	
11	0	0	0	0	951	556	
12	0	0	0	0	951	555	
13	0	0	0	0	951	545	
14	0	0	0	0	951	536	
15	0	0	0	0	951	539	
0	0	0	0	0	952	537	
1	0	0	0	0	951	536	
2	0	0	0	0	951	536	
3	0	0	0	0	951	536	
4	0	0	0	0	951	537	
5	0	0	0	0	951	518	
6	0	0	0	0	951	462	
7	0	0	0	0	951	543	
8	0	0	0	0	951	786	
9	0	0	0	0	952	566	
10	0	0	0	0	951	455	
11	0	0	0	0	951	494	
12	0	0	0	0	951	536	
13	0	0	0	0	951	543	
14	0	0	0	0	951	537	
15	0	0	0	0	951	542	
0	0	0	0	0	951	542	
1	0	0	0	0	951	543	
2	0	0	0	0	951	543	
3	0	0	0	0	951	545	
4	0	0	0	0	951	545	
5	0	0	0	0	951	548	
6	0	0	0	0	951	547	
7	0	0	0	0	951	547	
8	0	0	0	0	951	547	
9	0	0	0	0	951	545	
10	0	0	0	0	951	548	
11	0	0	0	0	951	551	
12	0	0	0	0	951	555	
13	0	0	0	0	951	562	
14	0	0	0	0	951	571	
15	0	0	0	0	951	575	
0	0	0	0	0	951	574	
1	0	0	0	0	951	563	
2	0	0	0	0	951	551	
3	0	0	0	0	951	542	
4	0	0	0	0	951	536	
5	0	0	0	0	951	531	
6	0	0	0	0	951	531	
7	0	0	0	0	951	529	
8	0	0	0	0	951	527	
9	0	0	0	0	951	527	
10	0	0	0	0	951	527	
11	0	0	0	0	951	529	
12	0	0	0	0	951	530	
13	0	0	0	0	951	531	
14	0	0	0	0	951	536	
15	0	0	0	0	951	536	
0	0	0	0	0	951	536	
1	0	0	0	0	951	539	
2	0	0	0	0	951	537	
3	0	0	0	0	951	536	
4	0	0	0	0	951	537	
5	0	0	0	0	950	537	
6	0	0	0	0	951	536	
7	0	0	0	0	951	536	
8	0	0	0	0	951	536	
9	0	0	0	0	950	536	
10	0	0	0	0	950	535	
11	0	0	0	0	950	531	
12	0	0	0	0	950	531	
13	0	0	0	0	950	543	
14	0	0	0	0	950	547	
15	0	0	0	0	950	543	
0	0	0	0	0	950	534	
1	0	0	0	0	950	520	
2	0	0	0	0	950	521	
3	0	0	0	0	950	519	
4	0	0	0	0	950	518	
5	0	0	0	0	950	515	
6	0	0	0	0	950	515	
7	0	0	0	0	950	515	
8	0	0	0	0	950	504	
9	0	0	0	0	950	451	
10	0	0	0	0	950	489	
11	0	0	0	0	950	711	
12	0	0	0	0	950	579	
13	0	0	0	0	950	408	
14	0	0	0	0	950	455	
15	0	0	0	0	950	486	
0	0	0	0	0	950	519	
1	0	0	0	0	950	508	
2	0	0	0	0	950	515	
3	0	0	0	0	950	517	
4	0	0	0	0	950	521	
5	0	0	0	0	950	524	
6	0	0	0	0	950	527	
7	0	0	0	0	950	527	
8	0	0	0	0	950	531	
9	0	0	0	0	950	532	
10	0	0	0	0	950	531	
11	0	0	0	0	950	534	
12	0	0	0	0	950	535	
13	0	0	0	0	950	536	
14	0	0	0	0	950	539	
15	0	0	0	0	950	540	
0	0	0	0	0	950	545	
1	0	0	0	0	950	555	
2	0	0	0	0	950	559	
3	0	0	0	0	950	559	
4	0	0	0	0	950	543	
5	0	0	0	0	950	531	
6	0	0	0	0	949	519	
7	0	0	0	0	950	512	
8	0	0	0	0	949	511	
9	0	0	0	0	949	508	
10	0	0	0	0	949	508	
11	0	0	0	0	949	508	
12	0	0	0	0	949	508	
13	0	0	0	0	949	508	
14	0	0	0	0	949	508	
15	0	0	0	0	948	510	
0	0	0	0	0	948	511	
1	0	0	0	0	948	513	
2	0	0	0	0	948	511	
3	0	0	0	0	948	508	
4	0	0	0	0	948	505	
5	0	0	0	0	948	505	
6	0	0	0	0	948	504	
7	0	0	0	0	948	505	
8	0	0	0	0	948	505	
9	0	0	0	0	948	508	
10	0	0	0	0	948	513	
11	0	0	0	0	948	515	
12	0	0	0	0	948	518	
13	0	0	0	0	948	518	
14	0	0	0	0	948	519	
15	0	0	0	0	948	536	
0	0	0	0	0	948	543	
1	0	0	0	0	948	542	
2	0	0	0	0	948	536	
3	0	0	0	0	948	526	
4	0	0	0	0	948	526	
5	0	0	0	0	948	526	
6	0	0	0	0	948	527	
7	0	0	0	0	948	527	
8	0	0	0	0	948	529	
9	0	0	0	0	948	534	
10	0	0	0	0	948	526	
11	0	0	0	0	948	480	
12	0	0	0	0	948	507	
13	0	0	0	0	948	711	
14	0	0	0	0	948	624	
15	0	0	0	0	948	433	
0	0	0	0	0	948	484	
1	0	0	0	0	948	505	
2	0	0	0	0	948	553	
3	0	0	0	0	948	544	
4	0	0	0	0	948	547	
5	0	0	0	0	948	547	
6	0	0	0	0	948	551	
7	0	0	0	0	948	548	
8	0	0	0	0	948	550	
9	0	0	0	0	948	551	
10	0	0	0	0	948	547	
11	0	0	0	0	948	543	
12	0	0	0	0	948	537	
13	0	0	0	0	948	536	
14	0	0	0	0	948	534	
15	0	0	0	0	948	527	
0	0	0	0	0	947	527	
1	0	0	0	0	947	526	
2	0	0	0	0	948	526	
3	0	0	0	0	947	527	
4	0	0	0	0	948	529	
5	0	0	0	0	947	527	
6	0	0	0	0	947	511	
7	0	0	0	0	947	496	
8	0	0	0	0	947	483	
9	0	0	0	0	947	480	
10	0	0	0	0	947	476	
11	0	0	0	0	947	472	
12	0	0	0	0	947	472	
13	0	0	0	0	947	475	
14	0	0	0	0	947	475	
15	0	0	0	0	947	476	
0	0	0	0	0	947	475	
1	0	0	0	0	947	480	
2	0	0	0	0	947	486	
3	0	0	0	0	947	487	
4	0	0	0	0	947	491	
5	0	0	0	0	947	495	
6	0	0	0	0	947	496	
7	0	0	0	0	947	494	
8	0	0	0	0	947	491	
9	0	0	0	0	947	492	
10	0	0	0	0	947	493	
11	0	0	0	0	947	499	
12	0	0	0	0	947	505	
13	0	0	0	0	947	511	
14	0	0	0	0	947	515	
15	0	0	0	0	947	521	
0	0	0	0	0	947	526	
1	0	0	0	0	947	532	
2	0	0	0	0	947	542	
3	0	0	0	0	947	542	
4	0	0	0	0	947	561	
5	0	0	0	0	947	572	
6	0	0	0	0	947	572	
7	0	0	0	0	947	569	
8	0	0	0	0	947	556	
9	0	0	0	0	947	552	
10	0	0	0	0	947	558	
11	0	0	0	0	947	558	
12	0	0	0	0	947	560	
13	0	0	0	0	947	563	
14	0	0	0	0	947	563	
15	0	0	0	0	947	566	
0	0	0	0	0	947	513	
1	0	0	0	0	947	496	
